Time (s),ECG (mV)
0.0,0.0
0.002,0.003379873148154365
0.004,0.00675686378131469
0.006,0.010128093221604049
0.008,0.013490690459966868
0.01,0.016841795977055065
0.012,0.020178565547906327
0.014,0.023498174025047596
0.016,0.026797819094687682
0.018000000000000002,0.03007472500070094
0.02,0.033326146231149864
0.022,0.036549371162147425
0.024,0.03974172565392077
0.026000000000000002,0.042900576594005674
0.028,0.04602333538257603
0.03,0.04910746135499531
0.032,0.052150465136765425
0.034,0.055149911926144865
0.036000000000000004,0.058103424699810696
0.038,0.06100868733704772
0.04,0.06386344765806479
0.042,0.06666552037215874
0.044,0.06941278993157628
0.046,0.07210321328705599
0.048,0.074734822541174
0.05,0.07730572749576088
0.052000000000000005,0.07981411808980801
0.054,0.08225826672443737
0.056,0.08463653047166861
0.058,0.08694735316388284
0.06,0.08918926736105094
0.062,0.09136089619296937
0.064,0.09346095507392183
0.066,0.0954882532873681
0.068,0.09744169543844489
0.07,0.09932028277225127
0.07200000000000001,0.10112311435608218
0.074,0.10284938812396617
0.076,0.10449840178205957
0.078,0.10606955357364602
0.08,0.10756234290269046
0.082,0.10897637081509663
0.084,0.11031134033702007
0.08600000000000001,0.11156705666979017
0.088,0.11274342724119966
0.09,0.11384046161312358
0.092,0.11485827124563198
0.094,0.11579706911796786
0.096,0.11665716920696015
0.098,0.11743898582364906
0.1,0.11814303280909783
0.10200000000000001,0.11876992259056793
0.10400000000000001,0.11932036509943089
0.106,0.11979516655238735
0.108,0.12019522809775748
0.11,0.12052154432879778
0.112,0.12077520166618931
0.114,0.12095737661202631
0.116,0.12106933387781788
0.11800000000000001,0.12111242438919342
0.12,0.12108808317017751
0.122,0.12099782711007055
0.124,0.12084325261613872
0.126,0.12062603315547746
0.128,0.12034791668957137
0.13,0.12001072300522414
0.132,0.11961634094567995
0.134,0.11916672554589909
0.136,0.11866389507608575
0.138,0.1181099279976972
0.14,0.11750695983628638
0.14200000000000002,0.11685717997564815
0.14400000000000002,0.11616282837785134
0.146,0.11542619223384297
0.148,0.1146496025494097
0.15,0.1138354306713731
0.152,0.11298608475897946
0.154,0.11210400620552305
0.156,0.11119166601531102
0.158,0.11025156114114239
0.16,0.10928621078752818
0.162,0.10829815268492908
0.164,0.10728993934032675
0.166,0.10626413426947867
0.168,0.10522330821623242
0.17,0.10417003536429202
0.17200000000000001,0.10310688954684066
0.17400000000000002,0.10203644045942603
0.176,0.10096124988150888
0.178,0.0998838679120644
0.18,0.09880682922460335
0.182,0.09773264934695372
0.184,0.0966638209711072
0.186,0.0956028102983915
0.188,0.09455205342517913
0.19,0.0935139527742854
0.192,0.09249087357714265
0.194,0.09148514041176517
0.196,0.09049903380143948
0.198,0.08953478687898861
0.2,0.08859458212136385
0.202,0.08768054815921882
0.20400000000000001,0.08679475666601201
0.20600000000000002,0.08593921933107214
0.20800000000000002,0.08511588492093901
0.21,0.08432663643316848
0.212,0.08357328834665685
0.214,0.08285758397240332
0.216,0.08218119290848515
0.218,0.08154570860287233
0.22,0.08095264602755431
0.222,0.08040343946729268
0.224,0.07989944042615096
0.226,0.07944191565478396
0.228,0.0790320453012972
0.23,0.07867092118831194
0.232,0.07835954521868949
0.234,0.07809882791218702
0.23600000000000002,0.07788958707512973
0.23800000000000002,0.0777325466049944
0.24,0.07762833543160787
0.242,0.07757748659646893
0.244,0.07758043647150531
0.246,0.07763752411837894
0.248,0.07774899078925258
0.25,0.07791497956972882
0.252,0.0781355351644707
0.254,0.07841060382580947
0.256,0.07874003342544109
0.258,0.07912357366910994
0.26,0.07956087645397411
0.262,0.08005149636814297
0.264,0.0805948913316761
0.266,0.08119042337813037
0.268,0.0818373595755422
0.27,0.08253487308553308
0.272,0.08328204435902974
0.274,0.084077862466896
0.276,0.08492122656358053
0.278,0.0858109474816959
0.28,0.0867457494552574
0.28200000000000003,0.08772427196912652
0.28400000000000003,0.08874507173202474
0.28600000000000003,0.08980662477030692
0.28800000000000003,0.09090732863951118
0.29,0.09204550475053463
0.292,0.09321940080712149
0.294,0.09442719335118954
0.296,0.09566699041236998
0.298,0.09693683425798463
0.3,0.09823470423954232
0.302,0.0995585197316992
0.304,0.1009061431594945
0.306,0.10227538310954837
0.308,0.10366399752078823
0.31,0.10506969695015715
0.312,0.10649014790864916
0.314,0.10792297626291839
0.316,0.10936577069761316
0.318,0.11081608623350062
0.32,0.11227144779636686
0.322,0.11372935383160629
0.324,0.11518727995934673
0.326,0.11664268266490035
0.328,0.11809300301927857
0.33,0.11953567042446753
0.332,0.12096810637812255
0.334,0.12238772825231493
0.336,0.12379195308094203
0.338,0.1251782013503989
0.34,0.126543900788106
0.342,0.12788649014348896
0.34400000000000003,0.1292034229560164
0.34600000000000003,0.13049217130492155
0.34800000000000003,0.13175022953525692
0.35000000000000003,0.1329751179549653
0.352,0.13416438649769233
0.354,0.13531561834611183
0.356,0.1364264335105927
0.358,0.13749449235809835
0.36,0.13851749908628053
0.362,0.13949320513780586
0.364,0.1404194125500393
0.366,0.14129397723529952
0.368,0.1421148121869984
0.37,0.14287989060708461
0.372,0.1435872489503199
0.374,0.14423498988103506
0.376,0.14482128513813852
0.378,0.14534437830427835
0.38,0.14580258747519423
0.382,0.1461943078254398
0.384,0.1465180140668
0.386,0.1467722627958816
0.388,0.14695569472751194
0.39,0.1470670368107433
0.392,0.1471051042244252
0.394,0.1470688022494805
0.396,0.146957128015193
0.398,0.14676917211699547
0.4,0.1465041201034275
0.402,0.1461612538301195
0.404,0.14573995267884718
0.406,0.14523969463989225
0.40800000000000003,0.144660057256139
0.41000000000000003,0.14400071842753334
0.41200000000000003,0.14326145707472812
0.41400000000000003,0.14244215366093863
0.41600000000000004,0.14154279057123373
0.418,0.14056345234869017
0.42,0.1395043257870404
0.422,0.13836569987964886
0.424,0.13714796562485465
0.426,0.13585161568792245
0.428,0.13447724392004798
0.43,0.13302554473506598
0.432,0.13149731234471182
0.434,0.12989343985348734
0.436,0.12821491821438244
0.438,0.1264628350468997
0.44,0.12463837331902584
0.442,0.1227428098949874
0.444,0.12077751395081715
0.446,0.11874394525994626
0.448,0.11664365235122194
0.45,0.11447827054193098
0.452,0.11224951984858732
0.454,0.10995920277841478
0.456,0.10760920200462648
0.458,0.1052014779287661
0.46,0.1027380661335377
0.462,0.10022107472970648
0.464,0.09765268160080046
0.466,0.09503513154949278
0.468,0.09237073334967993
0.47000000000000003,0.08966185670840668
0.47200000000000003,0.08691092914191731
0.47400000000000003,0.08412043277023229
0.47600000000000003,0.08129290103476822
0.47800000000000004,0.07843091534362569
0.48,0.07553710164927321
0.482,0.07261412696345206
0.484,0.06966469581421525
0.486,0.06669154665009544
0.488,0.06369744819647395
0.49,0.06068519576928691
0.492,0.05765760755127053
0.494,0.05461752083599566
0.496,0.05156778824498972
0.498,0.0485112739232832
0.5,0.045450849718747396
0.502,0.04238939135061161
0.504,0.03932977457256713
0.506,0.036274871335870124
0.508,0.033227545957854876
0.51,0.030190651301265237
0.512,0.027167024969792095
0.514,0.024159485525183856
0.516,0.021170828731267
0.518,0.01820382383017463
0.52,0.015261209856033674
0.522,0.012345691991311827
0.524,0.009459937970961951
0.526,0.006606574539433309
0.528,0.003788183965547526
0.53,0.0010073006201509506
0.532,-0.001733592378632503
0.534,-0.0044320664478182704
0.536,-0.007085750745023576
0.538,-0.009692335292458831
0.54,-0.012249574015046973
0.542,-0.014755287688392162
0.544,-0.01720736679244813
0.546,-0.01960377426686744
0.548,-0.02194254816415623
0.55,-0.02422180419690178
0.552,-0.026439738175490557
0.554,-0.02859462833289151
0.556,-0.03068483753323801
0.558,-0.03270881536110774
0.56,-0.03466510008856902
0.562,-0.03655232051723569
0.5640000000000001,-0.03836919769274967
0.5660000000000001,-0.04011454648929204
0.5680000000000001,-0.04178727706190744
0.5700000000000001,-0.04338639616461501
0.5720000000000001,-0.044911008332468534
0.5740000000000001,-0.046360316925922546
0.5760000000000001,-0.047733625036056215
0.578,-0.04903033624940424
0.58,-0.05024995527134404
0.582,-0.05139208840718731
0.584,-0.052456443900329
0.586,-0.053442832127007234
0.588,-0.05435116564743183
0.59,-0.05518145911324359
0.592,-0.05593382903146991
0.594,-0.05660849338534568
0.596,-0.057205771112572745
0.598,-0.05772608144179144
0.6,-0.05816994308824121
0.602,-0.05853797330978608
0.604,-0.058830886824678366
0.606,-0.059049494592631015
0.608,-0.05919470246096316
0.61,-0.05926750967777362
0.612,-0.059269007274287196
0.614,-0.0592003763187038
0.616,-0.0590628860440611
0.618,-0.05885789185280349
0.62,-0.058586833200921895
0.622,-0.05825123136470073
0.624,-0.05785268709327612
0.626,-0.05739287815036955
0.628,-0.05687355674871862
0.63,-0.056296546880880885
0.632,-0.055663741550229615
0.634,-0.05497709990610598
0.636,-0.054238644287225614
0.638,-0.053450457177566996
0.64,-0.052614678079095964
0.642,-0.05173350030579562
0.644,-0.05080916770358272
0.646,-0.04984397130079908
0.648,-0.04884024589406151
0.65,-0.047800366574346845
0.652,-0.04672674519827387
0.654,-0.04562182680962028
0.656,-0.044488086016182586
0.658,-0.043328023327152146
0.66,-0.04214416145623468
0.662,-0.040939041595787665
0.664,-0.03971521966729402
0.666,-0.03847526255352168
0.668,-0.03722174431774255
0.67,-0.03595724241540693
0.672,-0.03468433390367569
0.674,-0.03340559165421587
0.676,-0.032123580574662615
0.678,-0.030840853844134954
0.68,-0.02955994916817291
0.682,-0.028283385058437385
0.684,-0.027013657142476822
0.686,-0.02575323450882034
0.6880000000000001,-0.024504556092610312
0.6900000000000001,-0.023270027106925873
0.6920000000000001,-0.022052015524883253
0.6940000000000001,-0.02085284861752983
0.6960000000000001,-0.019674809552465266
0.6980000000000001,-0.018520134058037263
0.7000000000000001,-0.01739100715786789
0.7020000000000001,-0.016289559980363657
0.704,-0.015217866647755252
0.706,-0.01417794124910235
0.708,-0.013171734901576294
0.71,-0.012201132904207466
0.712,-0.01126795198815483
0.714,-0.01037393766741505
0.716,-0.009520761693745935
0.718,-0.008710019619431419
0.72,-0.007943228471360503
0.722,-0.007221824539733624
0.724,-0.0065471612845481725
0.726,-0.005920507362845464
0.728,-0.005343044779529363
0.73,-0.004815867164392286
0.732,-0.00433997817780285
0.734,-0.003916290047326094
0.736,-0.0035456222373622497
0.738,-0.0032287002536988928
0.74,-0.002966154584679439
0.742,-0.0027585197804970915
0.744,-0.0026062336719257957
0.746,-0.002509636729601042
0.748,-0.002468971564763993
0.75,-0.0024843825721798905
0.752,-0.0025559157157397823
0.754,-0.0026835184570511185
0.756,-0.0028670398271192256
0.758,-0.0031062306410175496
0.76,-0.0034007438552413026
0.762,-0.003750135067235299
0.764,-0.0041538631563851
0.766,-0.004611291065557899
0.768,-0.005121686722080399
0.77,-0.00568422409684214
0.772,-0.006297984400014785
0.774,-0.006961957411685201
0.776,-0.00767504294550642
0.778,-0.008436052443281411
0.78,-0.00924371069820834
0.782,-0.010096657704332896
0.784,-0.010993450629572264
0.786,-0.011932565909500342
0.788,-0.01291240145891195
0.79,-0.013931278998014253
0.792,-0.014987446489931906
0.794,-0.016079080686053772
0.796,-0.017204289775593348
0.798,-0.01836111613558893
0.8,-0.019547539177425327
0.802,-0.020761478285820492
0.804,-0.02200079584608935
0.806,-0.023263300355372645
0.808,-0.024546749613394935
0.81,-0.02584885398820642
0.812,-0.027167279752254848
0.8140000000000001,-0.028499652484031135
0.8160000000000001,-0.029843560530443475
0.8180000000000001,-0.031196558524982557
0.8200000000000001,-0.032556170956664576
0.8220000000000001,-0.03391989578466553
0.8240000000000001,-0.03528520809349257
0.8260000000000001,-0.03664956378348279
0.8280000000000001,-0.038010403291368886
0.8300000000000001,-0.03936515533560586
0.8320000000000001,-0.04071124068111895
0.834,-0.04204607591810634
0.836,-0.043367077249505885
0.838,-0.044671664281725955
0.84,-0.04595726381323325
0.842,-0.047221313615595714
0.844,-0.048461266201584335
0.846,-0.04967459257496036
0.848,-0.05085878595659807
0.85,-0.0520113654816253
0.852,-0.05312987986230711
0.854,-0.05421191101144379
0.856,-0.05525507762111295
0.858,-0.056257038691645736
0.86,-0.05721549700579773
0.862,-0.05812820254315641
0.864,-0.05899295582990649
0.866,-0.05980761121916756
0.868,-0.06057008009721973
0.87,-0.06127833401103421
0.872,-0.061930407712637095
0.874,-0.06252440211595661
0.876,-0.063058487161924
0.878,-0.06353090458772773
0.88,-0.06393997059626241
0.882,-0.06428407842194797
0.884,-0.06456170078924524
0.886,-0.06477139226034731
0.888,-0.06491179146868103
0.89,-0.06498162323501436
0.892,-0.06497970056313469
0.894,-0.06490492651223265
0.896,-0.06475629594329763
0.898,-0.06453289713701707
0.9,-0.0642339132808466
0.902,-0.06385862382310768
0.904,-0.06340640569215769
0.906,-0.06287673437886787
0.908,-0.06226918488083873
0.91,-0.06158343250697963
0.912,-0.06081925354127622
0.914,-0.05997652576476955
0.916,-0.05905522883497254
0.918,-0.05805544452215153
0.92,-0.05697735680210259
0.922,-0.055821251805257904
0.924,-0.05458751762216024
0.926,-0.05327664396554735
0.928,-0.05188922168949239
0.93,-0.05042594216624845
0.932,-0.048887596521648397
0.934,-0.04727507473011029
0.936,-0.04558936457050032
0.9380000000000001,-0.04383155044430029
0.9400000000000001,-0.04200281205772365
0.9420000000000001,-0.040104422969616964
0.9440000000000001,-0.03813774900717353
0.9460000000000001,-0.036104246551675115
0.9480000000000001,-0.03400546069666007
0.9500000000000001,-0.03184302328109862
0.9520000000000001,-0.029618650800334254
0.9540000000000001,-0.027334142197721952
0.9560000000000001,-0.02499137654006329
0.9580000000000001,-0.022592310580106884
0.96,-0.020138976209537703
0.962,-0.017633477806037783
0.964,-0.015077989478151841
0.966,-0.01247475221183333
0.968,-0.009826070922688012
0.97,-0.0071343114180656385
0.972,-0.004401897273280161
0.974,-0.0016313066263564553
0.976,0.0011749311041795475
0.978,0.004014238573838799
0.98,0.006883993934311553
0.982,0.00978153431838735
0.984,0.012704159382738285
0.986,0.01564913490357271
0.988,0.018613696420087526
0.99,0.02159505292057891
0.992,0.02459039056601548
0.994,0.0275968764458206
0.996,0.030611662360563147
0.998,0.033631888626225195
1.0,0.036654687894677206
1.002,0.039677188984969594
1.004,0.04269652072003877
1.006,0.045709815763413125
1.008,0.04871421445050443
1.01,0.05170686860908274
1.012,0.05468494536354372
1.014,0.057645630917598945
1.016,0.06058613431005748
1.018,0.06350369113839852
1.02,0.06639556724488113
1.022,0.06925906235999571
1.024,0.07209151369811663
1.026,0.07489029950028432
1.028,0.07765284251912405
1.03,0.08037661344098691
1.032,0.08305913424048642
1.034,0.08569798146270659
1.036,0.0882907894284537
1.038,0.09083525335803419
1.04,0.0933291324091611
1.042,0.09577025262470865
1.044,0.09815650978616328
1.046,0.10048587216875689
1.048,0.1027563831944034
1.05,0.10496616397870642
1.052,0.10711341576845693
1.054,0.1091964222661953
1.056,0.11121355183856989
1.058,0.11316325960539333
1.06,0.11504408940646425
1.062,0.11685467564339527
1.064,0.11859374499386886
1.066,0.12026011799592017
1.068,0.12185271050003206
1.07,0.12337053498701539
1.072,0.12481270174983804
1.074,0.1261784199377583
1.076,0.12746699846131537
1.078,0.12867784675692573
1.08,0.12981047541003435
1.082,0.13086449663597027
1.084,0.13183962461785764
1.086,0.1327356757011372
1.088,0.13355256844445512
1.09,0.1342903235268818
1.092,0.13494906351162625
1.094,0.13552901246661428
1.096,0.13603049544250462
1.098,0.13645393780891624
1.1,0.13679986444984407
1.102,0.13706889881943757
1.104,0.13726176185951805
1.106,0.13737927078040305
1.108,0.13742233770680262
1.11,0.13739196819074365
1.112,0.1372892595936656
1.114,0.13711539934001749
1.116,0.13687166304486942
1.118,0.13655941251822784
1.12,0.1361800936489212
1.122,0.1357352341710928
1.124,0.13522644131650338
1.1260000000000001,0.1346553993560081
1.1280000000000001,0.13402386703373037
1.1300000000000001,0.13333367489760795
1.1320000000000001,0.1325867225301303
1.1340000000000001,0.1317849756832306
1.1360000000000001,0.130930463321433
1.1380000000000001,0.13002527457747998
1.1400000000000001,0.1290715556247947
1.1420000000000001,0.12807150647124943
1.1440000000000001,0.12702737767881875
1.1460000000000001,0.12594146701380654
1.1480000000000001,0.1248161160324325
1.1500000000000001,0.12365370660665198
1.1520000000000001,0.12245665739517145
1.154,0.12122742026470028
1.156,0.11996847666654231
1.158,0.11868233397370588
1.16,0.11737152178375379
1.162,0.1160385881926721
1.164,0.11468609604507521
1.166,0.11331661916609437
1.168,0.11193273858032633
1.17,0.11053703872323734
1.172,0.10913210365042258
1.174,0.10772051325012977
1.176,0.10630483946444894
1.178,0.10488764252455418
1.18,0.10347146720536683
1.182,0.10205883910498198
1.184,0.10065226095415923
1.186,0.09925420896114087
1.188,0.09786712919700931
1.19,0.09649343402673338
1.192,0.0951354985909923
1.194,0.09379565734379323
1.196,0.09247620065081405
1.198,0.09117937145332128
1.2,0.08990736200241871
1.202,0.08866231066827787
1.204,0.0874462988288988
1.206,0.08626134784283618
1.208,0.08510941611020095
1.21,0.08399239622612797
1.212,0.08291211223076524
1.214,0.08187031695970187
1.216,0.08086868949861005
1.218,0.07990883274572913
1.22,0.07899227108566219
1.222,0.07812044817780049
1.224,0.07729472486252684
1.226,0.07651637718817961
1.228,0.07578659456158843
1.23,0.07510647802481756
1.232,0.07447703866056961
1.234,0.07389919612852242
1.236,0.07337377733468409
1.238,0.07290151523566113
1.24,0.07248304777954259
1.242,0.07211891698491002
1.244,0.07180956815928358
1.246,0.07155534925811834
1.248,0.07135651038526361
1.25,0.07121320343559644
1.252,0.0711254818803381
1.254,0.07109330069535975
1.256,0.0711165164325786
1.258,0.07119488743434266
1.26,0.07132807419049916
1.262,0.07151563983763683
1.264,0.07175705079979133
1.266,0.07205167756970099
1.268,0.07239879562949862
1.27,0.07279758650952932
1.272,0.07324713898378446
1.274,0.07374645040024871
1.276,0.07429442814426533
1.278,0.07488989123283495
1.28,0.0755315720375746
1.282,0.07621811813388468
1.284,0.0769480942736878
1.286,0.0777199844789283
1.288,0.07853219425285095
1.29,0.07938305290590769
1.292,0.0802708159929775
1.294,0.08119366785842731
1.296,0.08214972428538904
1.298,0.08313703524547368
1.3,0.08415358774500888
1.302,0.08519730876374128
1.304,0.08626606828181616
1.306,0.08735768239072121
1.308,0.08846991648376201
1.31,0.08960048852151944
1.312,0.09074707236763731
1.314,0.09190730119018675
1.316,0.093078770923755
1.318,0.09425904378732898
1.32,0.09544565185295623
1.322,0.09663610066009568
1.324,0.09782787287050726
1.326,0.09901843195847064
1.328,0.10020522593106684
1.33,0.10138569107322512
1.332,0.10255725571219133
1.334,0.10371734399604765
1.336,0.10486337968090084
1.338,0.10599278992133304
1.34,0.10710300905871037
1.342,0.10819148240194554
1.344,0.10925566999532309
1.346,0.11029305036800655
1.348,0.11130112425988375
1.35,0.11227741831843122
1.352,0.1132194887613186
1.354,0.11412492499953203
1.356,0.11499135321583943
1.358,0.11581643989349039
1.36,0.11659789529011272
1.362,0.11733347685184561
1.364,0.11802099256282896
1.366,0.11865830422526873
1.368,0.11924333066539
1.37,0.1197740508606924
1.372,0.12024850698404421
1.374,0.12066480736025693
1.3760000000000001,0.12102112933091475
1.3780000000000001,0.12131572202335886
1.3800000000000001,0.12154690901986687
1.3820000000000001,0.12171309092320098
1.3840000000000001,0.12181274781485622
1.3860000000000001,0.12184444160248409
1.3880000000000001,0.1218068182531244
1.3900000000000001,0.12169860990904798
1.3920000000000001,0.1215186368831676
1.3940000000000001,0.1212658095311562
1.3960000000000001,0.12093912999757743
1.3980000000000001,0.12053769383352145
1.4000000000000001,0.12006069148340998
1.4020000000000001,0.1195074096388319
1.4040000000000001,0.11887723245745153
1.4060000000000001,0.1181696426452237
1.408,0.11738422240034986
1.41,0.11652065421759594
1.412,0.11557872155180186
1.414,0.11455830933960096
1.416,0.11345940437857974
1.418,0.11228209556330068
1.42,0.11102657397782392
1.422,0.10969313284455674
1.424,0.10828216732947431
1.426,0.10679417420394938
1.428,0.10522975136363966
1.43,0.10358959720508085
1.432,0.10187450986083364
1.434,0.10008538629423994
1.436,0.09822322125503459
1.438,0.09628910609726536
1.44,0.09428422746115928
1.442,0.09220986582077866
1.444,0.09006739389948712
1.446,0.0878582749554466
1.448,0.08558406093954046
1.45,0.08324639052830582
1.452,0.08084698703463204
1.454,0.07838765619915661
1.456,0.07587028386546125
1.458,0.07329683354232988
1.46,0.07066934385650152
1.462,0.06798992589949196
1.464,0.0652607604722228
1.466,0.06248409523133109
1.468,0.059662241741178346
1.47,0.05679757243570892
1.472,0.05389251749443595
1.474,0.05094956163695768
1.476,0.04797124084051556
1.478,0.04496013898522748
1.48,0.04191888443171561
1.482,0.038850146535959855
1.484,0.035756632106286906
1.486,0.032641081807491465
1.488,0.02950626651715999
1.49,0.026354983639335448
1.492,0.023190053380723157
1.494,0.020014314994686193
1.496,0.01683062299833564
1.498,0.013641843368042755
1.5,0.010450849718747462
1.502,0.007260519472448804
1.504,0.004073730021284008
1.506,0.0008933548906087012
1.508,-0.002277740092508968
1.51,-0.005436700619973769
1.512,-0.00858068770714272
1.514,-0.01170688147572398
1.516,-0.014812484909768076
1.518,-0.017894727579446257
1.52,-0.020950869327367633
1.522,-0.023978203912234774
1.524,-0.02697406260469945
1.526,-0.029935817730348185
1.528,-0.032860886154820884
1.53,-0.03574673270615269
1.532,-0.038590873529508136
1.534,-0.04139087936958781
1.536,-0.04414437877607462
1.538,-0.04684906122760778
1.54,-0.04950268016988208
1.542,-0.052103055963594304
1.544,-0.05464807873808616
1.546,-0.057135711146665755
1.548,-0.05956399101973397
1.55,-0.06193103391197716
1.552,-0.06423503554005237
1.554,-0.06647427410733198
1.556,-0.0686471125124464
1.558,-0.07075200043852153
1.56,-0.07278747632017996
1.562,-0.07475216918554922
1.564,-0.07664480037069374
1.566,-0.07846418510407498
1.568,-0.0802092339588199
1.57,-0.08187895417077594
1.572,-0.0834724508205108
1.574,-0.08498892787761743
1.576,-0.08642768910587245
1.578,-0.08778813882800143
1.58,-0.08906978254899585
1.582,-0.09027222743713303
1.584,-0.0913951826620519
1.586,-0.09243845958943493
1.588,-0.09340197183205906
1.59,-0.09428573515717231
1.592,-0.09508986725036683
1.594,-0.09581458733631251
1.596,-0.09646021565692833
1.598,-0.09702717280776298
1.6,-0.09751597893356152
1.602,-0.09792725278419571
1.604,-0.09826171063232862
1.606,-0.09852016505438756
1.608,-0.09870352357660514
1.61,-0.098812787188089
1.612,-0.09884904872305929
1.614,-0.09881349111458776
1.616,-0.09870738552234874
1.618,-0.09853208933707244
1.62,-0.09828904406456779
1.622,-0.09797977309235016
1.624,-0.09760587934207775
1.6260000000000001,-0.09716904281116046
1.6280000000000001,-0.09667101800706479
1.6300000000000001,-0.09611363127798819
1.6320000000000001,-0.09549877804372466
1.6340000000000001,-0.09482841993068228
1.6360000000000001,-0.09410458181515441
1.6380000000000001,-0.09332934877907079
1.6400000000000001,-0.09250486298258007
1.6420000000000001,-0.09163332045793846
1.6440000000000001,-0.09071696782928061
1.6460000000000001,-0.08975809896296355
1.6480000000000001,-0.08875905155326724
1.6500000000000001,-0.08772220364832857
1.6520000000000001,-0.08664997012126792
1.6540000000000001,-0.08554479909155066
1.6560000000000001,-0.08440916830168893
1.6580000000000001,-0.08324558145445553
1.6600000000000001,-0.08205656451584178
1.6620000000000001,-0.08084466198902918
1.6640000000000001,-0.07961243316469548
1.666,-0.07836244835300478
1.668,-0.07709728510265448
1.67,-0.07581952441237608
1.672,-0.07453174694029081
1.674,-0.07323652921652635
1.676,-0.07193643986449923
1.678,-0.07063403583624711
1.68,-0.06933185866718057
1.682,-0.06803243075559738
1.684,-0.06673825167225834
1.686,-0.0654517945052899
1.688,-0.06417550224562339
1.69,-0.0629117842181226
1.692,-0.06166301256348611
1.694,-0.06043151877594256
1.696,-0.0592195903016688
1.698,-0.05802946720278215
1.7,-0.05686333889166119
1.702,-0.05572334094024593
1.704,-0.05461155196887015
1.706,-0.053529990619051435
1.708,-0.05248061261456043
1.71,-0.051465307914952886
1.712,-0.05048589796561935
1.714,-0.04954413304827449
1.716,-0.04864168973565909
1.718,-0.04778016845407929
1.72,-0.04696109115725958
1.722,-0.046185899114821946
1.724,-0.04545595081853955
1.726,-0.04477252000935214
1.728,-0.044136793827951076
1.73,-0.043549871091568236
1.732,-0.04301276069942581
1.734,-0.04252638016911739
1.736,-0.042091554306003774
1.738,-0.04170901400752178
1.74,-0.0413793952041074
1.742,-0.0411032379382416
1.744,-0.04088098558293218
1.746,-0.04071298420074343
1.748,-0.04059948204428679
1.75,-0.040540629198884535
1.752,-0.04053647736791468
1.754,-0.040586979801142856
1.756,-0.04069199136614363
1.758,-0.04085126876270813
1.76,-0.041064470879934076
1.762,-0.04133115929548783
1.764,-0.04165079891632759
1.766,-0.042022758759975506
1.768,-0.04244631287522458
1.77,-0.04292064140096837
1.772,-0.04344483176164693
1.774,-0.04401787999760337
1.776,-0.044638692228456095
1.778,-0.045306086247404447
1.78,-0.046018793244191884
1.782,-0.046775459654275146
1.784,-0.047574649131564443
1.786,-0.0484148446419225
1.788,-0.049294450674439716
1.79,-0.05021179556733767
1.792,-0.05116513394518311
1.794,-0.052152649263940296
1.796,-0.05317245646023972
1.798,-0.05422260470108117
1.8,-0.05530108023005764
1.802,-0.05640580930604421
1.804,-0.057534661230161696
1.806,-0.05868545145670154
1.808,-0.05985594478358268
1.81,-0.06104385861778822
1.812,-0.062246866311128586
1.814,-0.0634626005615828
1.816,-0.0646886568753609
1.818,-0.06592259708475838
1.82,-0.06716195291678859
1.822,-0.06840422960750271
1.824,-0.06964690955684441
1.826,-0.07088745601883543
1.828,-0.0721233168218214
1.83,-0.07335192811347845
1.832,-0.07457071812524382
1.834,-0.0757771109507942
1.836,-0.07696853033318923
1.838,-0.07814240345527933
1.84,-0.07929616472796777
1.842,-0.08042725957092388
1.844,-0.08153314818035996
1.846,-0.08261130927848717
1.848,-0.08365924383930641
1.85,-0.08467447878541934
1.852,-0.08565457065057677
1.854,-0.08659710920274256
1.856,-0.08749972102250048
1.858,-0.08836007303169335
1.86,-0.08917587596725496
1.862,-0.08994488779528031
1.864,-0.09066491706044867
1.866,-0.09133382616602002
1.868,-0.09194953457971987
1.87,-0.09251002196092384
1.872,-0.09301333120467786
1.874,-0.0934575713981999
1.8760000000000001,-0.0938409206856325
1.8780000000000001,-0.0941616290369509
1.8800000000000001,-0.09441802091706233
1.8820000000000001,-0.0946084978512736
1.8840000000000001,-0.09473154088345807
1.8860000000000001,-0.0947857129233946
1.8880000000000001,-0.09476966097991389
1.8900000000000001,-0.09468211827665513
1.8920000000000001,-0.09452190624738749
1.8940000000000001,-0.09428793640803819
1.8960000000000001,-0.09397921210273225
1.8980000000000001,-0.09359483012133411
1.9000000000000001,-0.09313398218615794
1.9020000000000001,-0.09259595630570745
1.9040000000000001,-0.09198013799348577
1.9060000000000001,-0.09128601135011077
1.9080000000000001,-0.09051316000717079
1.9100000000000001,-0.08966126793143979
1.9120000000000001,-0.08873012008828225
1.9140000000000001,-0.08771960296326746
1.9160000000000001,-0.08662970494122196
1.9180000000000001,-0.08546051654214386
1.92,-0.08421223051361372
1.922,-0.08288514177953316
1.924,-0.08147964724523206
1.926,-0.07999624545918331
1.928,-0.07843553613177451
1.93,-0.0767982195117829
1.932,-0.07508509562140318
1.934,-0.07329706335088373
1.936,-0.07143511941401537
1.938,-0.06950035716592806
1.94,-0.06749396528483292
1.942,-0.06541722631955062
1.944,-0.06327151510484987
1.946,-0.06105829704681598
1.948,-0.05877912628064161
1.95,-0.05643564370342745
1.952,-0.05402957488474817
1.954,-0.051562727857911245
1.956,-0.04903699079501744
1.958,-0.04645432956908202
1.96,-0.043816785206646225
1.962,-0.04112647123445902
1.964,-0.038385570923965565
1.966,-0.03559633443747079
1.968,-0.03276107588000477
1.97,-0.029882170261036158
1.972,-0.026962050370307987
1.974,-0.024003203572206193
1.976,-0.021008168523168957
1.978,-0.017979531816765475
1.98,-0.01491992456117197
1.982,-0.011832018893872679
1.984,-0.008718524438490029
1.986,-0.005582184708750411
1.988,-0.002425773464651339
1.99,0.0007479089740366745
1.992,0.0039360394517234335
1.994,0.0071357757331643075
1.996,0.0103442602865366
1.998,0.013558624088090514
2.0,0.016775990443005016
2.0020000000000002,0.019993478817068436
2.004,0.023208208673763553
2.0060000000000002,0.026417303311361506
2.008,0.029617893694593726
2.0100000000000002,0.032807122275516354
2.012,0.0359821467981545
2.0140000000000002,0.039140144081584054
2.016,0.04227831377609221
2.0180000000000002,0.04539388208713803
2.02,0.04848410546184289
2.0220000000000002,0.051546274232832055
2.024,0.05457771621426279
2.0260000000000002,0.057575800244999864
2.028,0.060537939673910475
2.0300000000000002,0.06346159578239528
2.032,0.06634428113930393
2.0340000000000003,0.06918356288353214
2.036,0.0719770659296506
2.0380000000000003,0.07472247609207248
2.04,0.07741754312333843
2.0420000000000003,0.08006008366225742
2.044,0.08264798408773782
2.0460000000000003,0.08517920327430716
2.048,0.08765177524542594
2.05,0.09006381172088165
2.052,0.09241350455466778
2.054,0.09469912805992352
2.056,0.09691904121768032
2.058,0.0990716897662928
2.06,0.10115560816864524
2.062,0.10316942145435766
2.064,0.10511184693442359
2.066,0.10698169578587013
2.068,0.108777874504235
2.07,0.11049938622182282
2.072,0.11214533188991492
2.074,0.1137149113232788
2.076,0.11520742410553794
2.078,0.11662227035414335
2.08,0.11795895134390344
2.082,0.1192170699882136
2.084,0.12039633117734475
2.086,0.12149654197333791
2.088,0.1225176116612702
2.09,0.12345955165684443
2.092,0.12432247527048017
2.094,0.1251065973282617
2.096,0.12581223365032926
2.098,0.12643980038747574
2.1,0.1269898132169346
2.102,0.12746288639852868
2.104,0.12785973169255682
2.106,0.12818115714098763
2.108,0.1284280657137243
2.11,0.12860145382189636
2.112,0.12870240970032215
2.114,0.1287321116614729
2.116,0.12869182622344819
2.118,0.12858290611465778
2.12,0.12840678815807008
2.122,0.12816499103806853
2.124,0.12785911295311664
2.126,0.12749082915759608
2.128,0.12706188939634197
2.13,0.12657411523554812
2.132,0.1260293972938641
2.134,0.1254296923776455
2.136,0.12477702052445741
2.138,0.12407346195905943
2.14,0.12332115396622309
2.142,0.12252228768485386
2.144,0.12167910482799922
2.146,0.1207938943334287
2.148,0.11986898894956999
2.15,0.11890676176168163
2.152,0.11790962266321733
2.154,0.11688001477742546
2.156,0.11582041083429033
2.158,0.1147333095079875
2.16,0.11362123172007922
2.162,0.11248671691372877
2.164,0.11133231930424815
2.166,0.11016060411132815
2.168,0.10897414377833052
2.17,0.10777551418403045
2.172,0.10656729085221445
2.174,0.10535204516454422
2.176,0.10413234058208026
2.178,0.10291072888086045
2.18,0.10168974640689799
2.182,0.10047191035594072
2.184,0.0992597150832926
2.186,0.09805562844896495
2.188,0.09686208820336091
2.19,0.09568149841865091
2.192,0.0945162259709241
2.194,0.09336859707813117
2.196,0.09224089389875048
2.198,0.09113535119603122
2.2,0.09005415307256162
2.202,0.08899942977982034
2.204,0.08797325460725751
2.206,0.0869776408553373
2.208,0.08601453889685606
2.21,0.085085833330726
2.212,0.08419334023227634
2.214,0.08333880450399427
2.216,0.08252389733047809
2.218,0.08175021374123029
2.22,0.0810192702847613
2.222,0.08033250281732184
2.224,0.07969126440940977
2.226,0.07909682337303829
2.228,0.07855036141257385
2.23,0.07805297190177983
2.232,0.07760565828951871
2.234,0.07720933263638752
2.236,0.0768648142843679
2.238,0.07657282866138865
2.24,0.0763340062225035
2.242,0.07614888152919139
2.244,0.07601789246809285
2.246,0.07594137961029418
2.248,0.07591958571207323
2.25,0.07595265535781773
2.2520000000000002,0.07604063474562527
2.254,0.07618347161589033
2.2560000000000002,0.07638101532298036
2.258,0.07663301704989897
2.2600000000000002,0.07693913016563103
2.262,0.07729891072465941
2.2640000000000002,0.07771181810794471
2.266,0.07817721580445111
2.2680000000000002,0.07869437233210932
2.27,0.07926246229690163
2.2720000000000002,0.07988056758856275
2.274,0.08054767871119095
2.2760000000000002,0.08126269624687754
2.278,0.0820244324502645
2.2800000000000002,0.0828316129717652
2.282,0.08368287870698721
2.2840000000000003,0.08457678776972796
2.286,0.08551181758572712
2.2880000000000003,0.08648636710419953
2.29,0.08749875912398923
2.2920000000000003,0.08854724273104034
2.294,0.08962999584370339
2.2960000000000003,0.0907451278622574
2.298,0.09189068241886636
2.3000000000000003,0.09306464022406
2.302,0.0942649220056716
2.3040000000000003,0.09548939153605837
2.306,0.09673585874327842
2.308,0.09800208290180026
2.31,0.09928577589819321
2.312,0.10058460556714195
2.314,0.1018961990930405
2.316,0.10321814647230576
2.318,0.1045480040314863
2.32,0.10588329799614218
2.322,0.1072215281054199
2.324,0.10856017126715563
2.326,0.10989668524831199
2.328,0.11122851239547293
2.33,0.11255308338010371
2.332,0.11386782096322584
2.334,0.11517014377414975
2.336,0.11645747009786353
2.338,0.11772722166569097
2.34,0.11897682744380011
2.342,0.12020372741416732
2.344,0.12140537634259703
2.346,0.12257924752842878
2.348,0.12372283653057183
2.35,0.12483366486456304
2.352,0.12590928366536022
2.354,0.1269472773106531
2.356,0.1279452669995118
2.358,0.12890091428127318
2.36,0.12981192452961465
2.362,0.13067605035686777
2.364,0.1314910949636839
2.366,0.13225491541927495
2.368,0.13296542586753562
2.37,0.13362060065447393
2.372,0.13421847737246845
2.374,0.13475715981701122
2.376,0.1352348208517006
2.378,0.13564970517738686
2.38,0.13600013200151015
2.382,0.13628449760380745
2.384,0.13650127779471413
2.386,0.13664903026294045
2.388,0.1367263968088549
2.39,0.136732105460474
2.392,0.13666497246902012
2.394,0.13652390418118293
2.396,0.13630789878539207
2.398,0.13601604792959143
2.4,0.13564753820818246
2.402,0.1352016525159939
2.404,0.13467777126732233
2.406,0.13407537347827886
2.408,0.13339403771087194
2.41,0.13263344287745166
2.412,0.1317933689043434
2.414,0.13087369725368703
2.416,0.12987441130271743
2.418,0.12879559657990244
2.42,0.12763744085758008
2.422,0.12640023410091958
2.424,0.12508436827325217
2.426,0.12369033699800808
2.428,0.12221873507771011
2.43,0.12067025787066739
2.432,0.11904570052622596
2.434,0.11734595707962016
2.436,0.11557201940768355
2.438,0.11372497604685894
2.44,0.1118060108751602
2.442,0.10981640165991256
2.444,0.10775751847331004
2.446,0.10563082197799269
2.448,0.10343786158505519
2.45,0.101180273487055
2.452,0.098859778568793
2.454,0.09647818019877835
2.456,0.09403736190450318
2.458,0.09153928493476614
2.46,0.08898598571249633
2.462,0.08637957318163794
2.464,0.08372222605184544
2.466,0.0810161899448499
2.468,0.07826377444653136
2.47,0.07546735006882857
2.472,0.07262934512578297
2.474,0.06975224252810146
2.476,0.06683857650076974
2.478,0.06389092922832436
2.48,0.06091192743253259
2.482,0.05790423888728159
2.484,0.05487056887561163
2.486,0.051813656593869384
2.488,0.04873627150807276
2.49,0.04564120966760002
2.492,0.04253128998143371
2.494,0.03940935046217734
2.496,0.03627824444317479
2.498,0.033140836774042115
2.5,0.03000000000000033
2.5020000000000002,0.026858610530378354
2.504,0.023719544801714093
2.5060000000000002,0.020585675440842194
2.508,0.017459867433403876
2.5100000000000002,0.014344974303164709
2.512,0.011243834307547603
2.5140000000000002,0.008159266654731285
2.516,0.005094067747665087
2.5180000000000002,0.0020510074602865594
2.52,-0.0009671745487960445
2.5220000000000002,-0.003957772479969812
2.524,-0.00691811798847522
2.5260000000000002,-0.009845583727408423
2.528,-0.012737586832848195
2.5300000000000002,-0.015591592346216022
2.532,-0.018405116569025815
2.5340000000000003,-0.021175730345313164
2.536,-0.02390106226710119
2.5380000000000003,-0.026578801798402555
2.54,-0.029206702313343522
2.5420000000000003,-0.03178258404414191
2.544,-0.034304336934779495
2.5460000000000003,-0.03676992339636182
2.548,-0.03917738096027609
2.5500000000000003,-0.04152482482542913
2.552,-0.04381045029596814
2.5540000000000003,-0.04603253510607372
2.556,-0.048189441628545916
2.5580000000000003,-0.050279618964092256
2.56,-0.05230160490837764
2.562,-0.0542540277940881
2.564,-0.05613560820541811
2.566,-0.057945160562586556
2.568,-0.05968159457416869
2.57,-0.06134391655520995
2.572,-0.06293123060929597
2.574,-0.06444273967291876
2.576,-0.06587774642071045
2.578,-0.06723565403027675
2.58,-0.06851596680559026
2.582,-0.06971829065808582
2.584,-0.07084233344481633
2.586,-0.07188790516321578
2.588,-0.07285491800223316
2.59,-0.07374338624979541
2.592,-0.07455342605676873
2.594,-0.07528525505778325
2.596,-0.07593919184949639
2.598,-0.07651565532706833
2.6,-0.07701516387982754
2.602,-0.0774383344472997
2.604,-0.07778588143697489
2.606,-0.07805861550538329
2.608,-0.07825744220424621
2.61,-0.07838336049365043
2.612,-0.07843746112439917
2.614,-0.078420924891865
2.616,-0.07833502076385457
2.618,-0.07818110388518096
2.62,-0.07796061346180622
2.622,-0.07767507052759243
2.624,-0.0773260755968601
2.626,-0.07691530620612644
2.628,-0.076444514348538
2.63,-0.07591552380467717
2.632,-0.0753302273735594
2.634,-0.07469058400778864
2.636,-0.07399861585696371
2.638,-0.07325640522357252
2.64,-0.07246609143571466
2.642,-0.07162986764113453
2.644,-0.07074997752714
2.646,-0.06982871197109447
2.648,-0.06886840562626698
2.65,-0.06787143344792125
2.652,-0.06684020716459733
2.654,-0.0657771716996292
2.656,-0.06468480154800574
2.658,-0.06356559711374968
2.66,-0.062422081013033426
2.662,-0.061256794348321895
2.664,-0.06007229295884364
2.666,-0.05887114365275242
2.668,-0.0576559204263451
2.67,-0.05642920067573806
2.672,-0.0551935614063962
2.674,-0.05395157544593325
2.676,-0.05270580766556934
2.678,-0.05145881121564866
2.68,-0.05021312378057577
2.682,-0.04897126385851559
2.684,-0.04773572707115688
2.686,-0.04650898250880857
2.688,-0.04529346911602919
2.69,-0.044091592122949747
2.692,-0.042905719527372876
2.694,-0.04173817863266753
2.696,-0.040591252646385176
2.698,-0.03946717734445855
2.7,-0.038368137805723374
2.702,-0.03729626522142865
2.704,-0.03625363378427347
2.706,-0.03524225766141163
2.708,-0.03426408805572964
2.71,-0.03332101035959591
2.712,-0.03241484140512489
2.714,-0.03154732681488584
2.716,-0.03072013845682314
2.718,-0.02993487200701963
2.72,-0.029193044623771213
2.722,-0.02849609273629307
2.724,-0.027845369951200752
2.726,-0.027242145079754695
2.728,-0.026687600288675742
2.73,-0.026182829377168895
2.732,-0.025728836182606
2.734,-0.02532653311714469
2.736,-0.024976739837362365
2.738,-0.024680182048805614
2.74,-0.024437490447154486
2.742,-0.02424919979751318
2.744,-0.02411574815313669
2.746,-0.024037476214708278
2.748,-0.024014626831079036
2.75,-0.02404734464218226
2.7520000000000002,-0.024135675864631084
2.754,-0.024279568220304405
2.7560000000000002,-0.024478871008024167
2.758,-0.024733335318220685
2.7600000000000002,-0.025042614390282
2.762,-0.02540626411207646
2.7640000000000002,-0.025823743660939324
2.766,-0.02629441628520813
2.7680000000000002,-0.026817550225196496
2.77,-0.027392319772290587
2.7720000000000002,-0.028017806464664688
2.774,-0.028693000417907493
2.7760000000000002,-0.02941680178866866
2.778,-0.030188022369235557
2.7800000000000002,-0.031005387310774877
2.782,-0.031867536972776334
2.7840000000000003,-0.032773028896072975
2.786,-0.033720339896618906
2.7880000000000003,-0.03470786827704828
2.79,-0.03573393615285887
2.7920000000000003,-0.036796791889913624
2.794,-0.037894612649777414
2.7960000000000003,-0.03902550703927335
2.798,-0.04018751786047497
2.8000000000000003,-0.04137862495722211
2.802,-0.04259674815409861
2.8040000000000003,-0.04383975028369276
2.806,-0.045105440297814464
2.8080000000000003,-0.04639157645824968
2.81,-0.04769586960249235
2.8120000000000003,-0.049015986479810744
2.814,-0.050349553152883766
2.816,-0.051694158460169684
2.818,-0.0530473575340608
2.82,-0.05440667536982027
2.822,-0.055769610440208464
2.824,-0.057133638350645014
2.826,-0.058496215529700614
2.828,-0.0598547829496543
2.83,-0.06120676987181097
2.832,-0.06254959761124074
2.834,-0.06388068331557434
2.836,-0.06519744375245938
2.838,-0.06649729910028365
2.84,-0.06777767673675393
2.842,-0.06903601501992909
2.844,-0.07026976705631276
2.846,-0.07147640445063279
2.848,-0.07265342103195215
2.85,-0.07379833655080234
2.852,-0.07490870034205682
2.854,-0.0759820949483185
2.856,-0.0770161396986529
2.858,-0.07800849423755413
2.86,-0.0789568619991065
2.862,-0.07985899362138058
2.864,-0.08071269029618994
2.866,-0.08151580704941772
2.868,-0.0822662559472312
2.87,-0.08296200922360325
2.872,-0.08360110232466472
2.874,-0.08418163686554178
2.876,-0.08470178349544377
2.878,-0.08515978466691052
2.88,-0.08555395730524652
2.882,-0.08588269537433085
2.884,-0.08614447233512071
2.886,-0.08633784349333275
2.888,-0.08646144823293177
2.89,-0.08651401213222791
2.892,-0.08649434895954217
2.894,-0.08640136254557876
2.896,-0.08623404852981029
2.898,-0.08599149597836261
2.9,-0.0856728888710753
2.902,-0.08527750745558639
2.904,-0.08480472946648952
2.906,-0.08425403120780048
2.908,-0.08362498849716056
2.91,-0.08291727747040267
2.912,-0.08213067524530639
2.914,-0.0812650604435649
2.916,-0.08032041357018911
2.918,-0.07929681724977472
2.92,-0.0781944563192669
2.922,-0.07701361777705294
2.924,-0.0757546905884248
2.926,-0.0744181653476481
2.928,-0.07300463379709113
2.93,-0.07151478820405449
2.932,-0.06994942059615956
2.934,-0.06830942185633647
2.936,-0.0665957806786782
2.938,-0.06480958238658953
2.94,-0.06295200761489245
2.942,-0.061024330857711404
2.944,-0.0590279188841755
2.946,-0.05696422902414254
2.948,-0.05483480732635577
2.95,-0.052641286591602166
2.952,-0.05038538428364303
2.954,-0.04806890032083302
2.956,-0.045693714751544635
2.958,-0.04326178531665052
2.96,-0.04077514490250155
2.962,-0.038235898887968314
2.964,-0.03564622238929579
2.966,-0.03300835740663054
2.968,-0.03032460987625313
2.97,-0.027597346632649365
2.972,-0.024828992284721053
2.974,-0.02202202601051057
2.976,-0.019178978274982043
2.978,-0.01630242747546186
2.98,-0.013394996519485466
2.982,-0.010459349339857241
2.984,-0.007498187351854733
2.986,-0.004514245857554455
2.988,-0.0015102904023701937
2.99,0.0015108869110811527
2.992,0.004546471146564205
2.994,0.007593628290026449
2.996,0.010649509032302606
2.998,0.013711252573404248
3.0,0.016775990443004964
3.0020000000000002,0.019840850331754728
3.004,0.022902959927997436
3.0060000000000002,0.02595945075449975
3.008,0.029007461999752848
3.0100000000000002,0.03204414433847226
3.012,0.035066663735873235
3.0140000000000002,0.03807220523038812
3.016,0.041057976689456814
3.0180000000000002,0.04402121253312265
3.02,0.04695917742015629
3.0220000000000002,0.04986916989152882
3.024,0.052748525966075786
3.0260000000000002,0.055594622683303965
3.028,0.05840488158832344
3.0300000000000002,0.06117677215400901
3.032,0.06390781513555222
3.0340000000000003,0.06659558585269239
3.036,0.06923771739498073
3.0380000000000003,0.07183190374558183
3.04,0.07437590281919368
3.0420000000000003,0.07686753940982621
3.044,0.07930470804426491
3.0460000000000003,0.08168537573722917
3.048,0.08400758464432072
3.0500000000000003,0.08626945460905701
3.052,0.08846918560038186
3.0540000000000003,0.09060506003725075
3.056,0.09267544499700589
3.0580000000000003,0.09467879430445429
3.06,0.0966136504987047
3.0620000000000003,0.09847864667501938
3.064,0.10027250819908638
3.0660000000000003,0.10199405429132366
3.068,0.10364219947899134
3.0700000000000003,0.10521595491409502
3.072,0.10671442955523147
3.074,0.10813683121174372
3.076,0.10948246744873064
3.078,0.11075074635166314
3.08,0.1119411771495566
3.082,0.1130533706958444
3.084,0.11408703980631167
3.086,0.11504199945363529
3.088,0.11591816681829417
3.09,0.11671556119580728
3.092,0.11743430376046979
3.094,0.11807461718595141
3.096,0.11863682512333312
3.098,0.11912135153735467
3.1,0.11952871990185204
3.102,0.11985955225555715
3.104,0.12011456811963467
3.106,0.12029458327852817
3.108,0.12040050842587902
3.11,0.12043334767746917
3.112,0.12039419695334005
3.114,0.12028424223141106
3.116,0.12010475767511071
3.118,0.11985710363771508
3.12,0.11954272454625442
3.122,0.11916314666802823
3.124,0.11871997576292807
3.126,0.11821489462493802
3.128,0.11764966051632872
3.13,0.11702610249822756
3.132,0.11634611866137544
3.134,0.11561167326104327
3.136,0.11482479376019904
3.138,0.11398756778515971
3.14,0.11310213999807456
3.142,0.11217070889071472
3.144,0.11119552350415157
3.146,0.11017888007900467
3.148,0.10912311864105032
3.15,0.10803061952706469
3.152,0.10690379985586299
3.154,0.10574510994957113
3.156,0.10455702971024308
3.158,0.10334206495699277
3.16,0.10210274372886569
3.162,0.10084161255873318
3.164,0.09956123272351826
3.166,0.09826417647610836
3.168,0.09695302326432749
3.17,0.09563035594236301
3.172,0.09429875698004775
3.174,0.09296080467540944
3.176,0.09161906937588085
3.178,0.09027610971356624
3.18,0.08893446885992964
3.182,0.08759667080524322
3.184,0.08626521666810168
3.186,0.08494258104026599
3.188,0.08363120837204283
3.19,0.0823335094033551
3.192,0.08105185764559075
3.194,0.07978858591924419
3.196,0.0785459829522816
3.198,0.07732629004408569
3.2,0.07613169779972581
3.202,0.07496434293921414
3.204,0.07382630518629096
3.206,0.07271960424117449
3.208,0.07164619684158674
3.21,0.07060797391624725
3.212,0.06960675783488478
3.214,0.06864429975869074
3.216,0.06772227709498646
3.218,0.0668422910597315
3.22,0.0660058643513443
3.222,0.06521443893915298
3.224,0.06446937396962221
3.226,0.06377194379334246
3.228,0.06312333611559147
3.23,0.06252465027310207
3.232,0.06197689563949064
3.234,0.061480990161620154
3.236,0.06103775902897954
3.238,0.060647933477977305
3.24,0.06031214973285136
3.242,0.060030948084703994
3.244,0.05980477210997338
3.246,0.05963396802945572
3.248,0.05951878420878961
3.25,0.05945937080111546
3.2520000000000002,0.059455779532417534
3.254,0.059507963629855186
3.2560000000000002,0.05961577789318483
3.258,0.05977897890917055
3.2600000000000002,0.059997225408678134
3.262,0.060270078765943244
3.2640000000000002,0.060597003639303405
3.266,0.060977368752478375
3.2680000000000002,0.06141044781528946
3.27,0.061895420582502296
3.2720000000000002,0.062431374049287586
3.274,0.0630173037815935
3.2760000000000002,0.06365211537953881
3.278,0.0643346260717356
3.2800000000000002,0.06506356643827672
3.282,0.06583758225992753
3.2840000000000003,0.06665523649089211
3.286,0.06751501135233842
3.2880000000000003,0.06841531054370524
3.29,0.06935446156863223
3.2920000000000003,0.07033071817220951
3.294,0.07134226288606356
3.2960000000000003,0.07238720967766088
3.298,0.07346360670004906
3.3000000000000003,0.07456943913812247
3.302,0.07570263214734796
3.3040000000000003,0.07686105388077474
3.306,0.0780425186000032
3.3080000000000003,0.07924478986568788
3.31,0.08046558380302046
3.3120000000000003,0.08170257243754801
3.314,0.08295338709655914
3.3160000000000003,0.08421562187120454
3.318,0.08548683713440429
3.3200000000000003,0.08676456310953815
3.322,0.08804630348482156
3.3240000000000003,0.089329539068226
3.326,0.09061173147771885
3.3280000000000003,0.09189032686157861
3.33,0.09316275964346553
3.332,0.09442645628691675
3.334,0.0956788390738975
3.336,0.09691732989201166
3.338,0.09813935402498354
3.34,0.09934234394099153
3.342,0.10052374307346115
3.344,0.10168100958891398
3.346,0.10281162013650705
3.348,0.10391307357390121
3.35,0.10498289466415554
3.352,0.10601863773835973
3.354,0.10701789031878377
3.356,0.1079782766973713
3.358,0.10889746146446919
3.36,0.10977315298274921
3.362,0.11060310680136946
3.364,0.11138512900549308
3.366,0.11211707949638108
3.368,0.1127968751973705
3.37,0.11342249318116288
3.372,0.11399197371394161
3.374,0.11450342321197719
3.376,0.11495501710648279
3.378,0.11534500261262903
3.38,0.1156717013987487
3.382,0.11593351215191601
3.384,0.11612891303621996
3.386,0.1162564640402176
3.388,0.11631480921019476
3.39,0.11630267876603544
3.392,0.11621889109666127
3.394,0.1160623546321788
3.396,0.11583206959003835
3.398,0.11552712959269552
3.4,0.11514672315444839
3.402,0.11469013503529925
3.404,0.11415674745989055
3.406,0.11354604119974983
3.408,0.11285759651727385
3.41,0.11209109397007491
3.412,0.11124631507451756
3.414,0.11032314282746802
3.416,0.10932156208548192
3.418,0.10824165980085532
3.42,0.10708362511417455
3.422,0.10584774930319493
3.424,0.10453442558809026
3.426,0.10314414879330971
3.428,0.10167751486649523
3.43,0.10013522025510155
3.432,0.09851806114157485
3.434,0.09682693253813203
3.436,0.09506282724240812
3.438,0.09322683465539829
3.44,0.09132013946335772
3.442,0.08934402018548289
3.444,0.08729984758940965
3.446,0.08518908297673462
3.448,0.08301327634097125
3.45,0.0807740644005071
3.452,0.07847316850933488
3.454,0.07611239244847404
3.456,0.07369362010119662
3.458,0.07121881301531338
3.46,0.06869000785595795
3.462,0.06610931375243291
3.464,0.06347890954287169
3.466,0.06080104092057458
3.468,0.05807801748604931
3.47,0.055312209708891856
3.472,0.05250604580381069
3.474,0.049662008525162143
3.476,0.04678263188454532
3.478,0.04387049779605869
3.48,0.04092823265396111
3.482,0.03795850384754872
3.484,0.03496401621817891
3.486,0.0319475084634144
3.488,0.02891174949338186
3.49,0.025859534744460972
3.492,0.022793682455520988
3.494,0.019717029911943428
3.496,0.016632429662745002
3.498,0.013542745716112858
3.5,0.010450849718747404
3.5020000000000002,0.007359617124378237
3.504,0.004271923356875236
3.5060000000000002,0.0011906399733510034
3.508,-0.001881369167306213
3.5100000000000002,-0.004941251725099737
3.512,-0.007986170683364699
3.5140000000000002,-0.011013308131647373
3.516,-0.014019869021659512
3.5180000000000002,-0.017003084891035226
3.52,-0.01996021754961258
3.5220000000000002,-0.022888562723066413
3.524,-0.025785453648729313
3.5260000000000002,-0.02864826461855273
3.528,-0.03147441446419509
3.5300000000000002,-0.03426136997933607
3.532,-0.0370066492743786
3.5340000000000003,-0.03970782505883173
3.536,-0.042362527846723584
3.5380000000000003,-0.044968449080549124
3.54,-0.04752334416933807
3.5420000000000003,-0.0500250354365782
3.544,-0.05247141497382107
3.5460000000000003,-0.05486044739598355
3.548,-0.057190172494436864
3.5500000000000003,-0.059458707784178826
3.552,-0.06166425094148277
3.5540000000000003,-0.06380508212862002
3.556,-0.06587956620236861
3.5580000000000003,-0.06788615480322609
3.56,-0.06982338832237839
3.5620000000000003,-0.07168989774368215
3.564,-0.07348440635806698
3.5660000000000003,-0.07520573134796735
3.568,-0.07685278523956085
3.5700000000000003,-0.07842457722079695
3.572,-0.07992021432336634
3.5740000000000003,-0.08133890246697802
3.576,-0.08267994736448825
3.5780000000000003,-0.08394275528663987
3.58,-0.08512683368534635
3.5820000000000003,-0.08623179167468789
3.584,-0.08725734036895402
3.586,-0.08820329307730194
3.588,-0.0890695653547747
3.59,-0.08985617490965128
3.592,-0.09056324136729083
3.594,-0.0911909858908384
3.596,-0.09173973065936722
3.598,-0.09220989820423028
3.6,-0.09260201060460009
3.602,-0.09291668854336983
3.604,-0.09315465022478957
3.606,-0.09331671015541011
3.608,-0.09340377779009874
3.61,-0.09341685604507645
3.612,-0.09335703968012962
3.614,-0.0932255135523216
3.616,-0.09302355074371264
3.618,-0.09275251056578757
3.62,-0.09241383644344962
3.622,-0.09200905368162036
3.624,-0.09153976711764596
3.626,-0.091007658662881
3.628,-0.09041448473696254
3.63,-0.08976207359845889
3.632,-0.08905232257570536
3.634,-0.08828719520179468
3.636,-0.08746871825781889
3.638,-0.08659897872859444
3.64,-0.08568012067521696
3.642,-0.08471434202891753
3.644,-0.08370389131081261
3.646,-0.08265106428221539
3.648,-0.08155820053030868
3.65,-0.08042767999405281
3.652,-0.07926191943528585
3.654,-0.07806336886005161
3.656,-0.07683450789527996
3.658,-0.07557784212597131
3.66,-0.07429589939812331
3.662,-0.0729912260926795
3.664,-0.07166638337580683
3.666,-0.07032394343085477
3.668,-0.06896648567738
3.67,-0.06759659298261655
3.672,-0.06621684787080254
3.674,-0.06482982873577432
3.676,-0.06343810606221817
3.678,-0.062044238660973125
3.68,-0.060650769923762046
3.682,-0.05926022410267281
3.684,-0.05787510261970778
3.686,-0.05649788041166207
3.688,-0.055131002315534354
3.69,-0.053776879499623766
3.692,-0.05243788594541142
3.694,-0.05111635498522468
3.696,-0.04981457590062733
3.698,-0.04853479058638864
3.7,-0.04727919028477475
3.702,-0.04604991239482156
3.704,-0.044849037361141625
3.706,-0.043678585646687605
3.708,-0.04254051479379247
3.71,-0.04143671657767724
3.712,-0.0403690142564737
3.714,-0.039339159921684824
3.716,-0.03834883195286313
3.718,-0.03739963258012209
3.72,-0.03649308555796174
3.722,-0.03563063395372249
3.724,-0.03481363805381306
3.726,-0.03404337339069707
3.728,-0.03332102889345395
3.73,-0.03264770516454119
3.732,-0.03202441288521665
3.734,-0.031452071351894734
3.736,-0.03093150714551584
3.738,-0.03046345293582829
3.74,-0.030048546422286264
3.742,-0.029687329413069466
3.744,-0.02938024704353844
3.746,-0.02912764713523884
3.748,-0.02892977969636619
3.75,-0.028786796564403597
3.7520000000000002,-0.028698751191440677
3.754,-0.02866559857248028
3.7560000000000002,-0.028687195316833426
3.758,-0.02876329986250216
3.7600000000000002,-0.028893572833242953
3.762,-0.029077577537803993
3.7640000000000002,-0.0293147806106231
3.766,-0.029604552793073308
3.7680000000000002,-0.029946169854145638
3.77,-0.030338813649252942
3.7720000000000002,-0.030781573315650276
3.774,-0.03127344660276618
3.7760000000000002,-0.031813341335551526
3.778,-0.03240007700875697
3.7800000000000002,-0.03303238650987412
3.782,-0.033708917968277685
3.7840000000000003,-0.034428236727941236
3.786,-0.03518882744091125
3.7880000000000003,-0.03598909627855931
3.79,-0.03682737325745704
3.7920000000000003,-0.03770191467656891
3.794,-0.03861090566227883
3.7960000000000003,-0.03955246281763232
3.798,-0.04052463697201742
3.8000000000000003,-0.04152541602736495
3.802,-0.04255272789680871
3.8040000000000003,-0.043604443531629365
3.806,-0.04467838003215263
3.8080000000000003,-0.04577230383818184
3.81,-0.04688393399440982
3.8120000000000003,-0.04801094548616221
3.814,-0.04915097264070793
3.8160000000000003,-0.05030161258930348
3.818,-0.05146042878501986
3.8200000000000003,-0.05262495457135205
3.822,-0.053792696796514675
3.8240000000000003,-0.05496113946827645
3.826,-0.056127747444115195
3.8280000000000003,-0.0572899701514466
3.83,-0.05844524533260441
3.8320000000000003,-0.05959100280924556
3.834,-0.06072466826080814
3.8360000000000003,-0.06184366701163256
3.838,-0.06294542782134058
3.84,-0.06402738667307994
3.842,-0.06508699055421106
3.844,-0.0661217012240608
3.846,-0.0671289989633579
3.848,-0.0681063862999975
3.85,-0.06905139170583201
3.852,-0.06996157325919465
3.854,-0.07083452226794085
3.856,-0.07166786684783333
3.858,-0.0724592754511583
3.86,-0.07320646034053443
3.862,-0.07390718100296012
3.864,-0.07455924749921472
3.866,-0.07516052374383289
3.868,-0.07570893071096506
3.87,-0.07620244956154322
3.872,-0.07663912468727584
3.874,-0.07701706666712942
3.876,-0.07733445513205724
3.878,-0.07758954153388652
3.88,-0.07778065181439539
3.882,-0.07790618897076072
3.884,-0.0779646355136992
3.886,-0.07795455581478779
3.888,-0.07787459833958855
3.89,-0.07772349776338083
3.892,-0.07750007696646391
3.894,-0.07720324890616331
3.896,-0.07683201836284892
3.898,-0.07638548355745362
3.9,-0.07586283763816609
3.902,-0.0752633700341461
3.904,-0.07458646767431429
3.906,-0.07383161606944803
3.908,-0.07299840025601441
3.91,-0.07208650560036542
3.912,-0.07109571846212151
3.914,-0.07002592671576577
3.916,-0.06887712012967614
3.918,-0.06764939060201818
3.92,-0.0663429322531361
3.922,-0.06495804137427076
3.924,-0.06349511623264731
3.926,-0.0619546567331687
3.928,-0.06033726393716807
3.93,-0.05864363943886207
3.932,-0.056874584600362765
3.934,-0.05503099964628686
3.936,-0.053113882619232916
3.938,-0.051124328197552096
3.94,-0.04906352637707366
3.942,-0.04693276101861117
3.944,-0.044733408263286395
3.946,-0.04246693481787142
3.948,-0.040134896112566376
3.95,-0.03773893433377756
3.952,-0.03528077633466556
3.954,-0.03276223142638317
3.956,-0.030185189053119656
3.958,-0.027551616354199265
3.96,-0.024863555616678572
3.962,-0.022123121622006237
3.964,-0.019332498890492822
3.966,-0.016493938827455926
3.968,-0.013609756775071272
3.97,-0.010682328974057763
3.972,-0.007714089439507146
3.974,-0.004707526755225597
3.976,-0.0016651807911284532
3.978,0.0014103606517020285
3.98,0.004516465263552059
3.982,0.007650459711403285
3.984,0.010809633182110992
3.986,0.013991240978461019
3.988,0.017192508163019
3.99,0.020410633244647754
3.992,0.023642791902474238
3.994,0.02688614074207808
3.996,0.03013782107857826
3.998,0.033394962741305906
4.0,0.03665468789467702
4.002,0.039914114869888495
4.0040000000000004,0.04317036200202438
4.006,0.046420551467155666
4.008,0.049661813114045286
4.01,0.0528912882850135
4.0120000000000005,0.05610613362061294
4.014,0.059303524842711314
4.016,0.06248066051068439
4.018,0.0656347657453822
4.0200000000000005,0.06876309591564064
4.022,0.07186294028213315
4.024,0.07493162559342426
4.026,0.0779665196291531
4.0280000000000005,0.08096503468535166
4.03,0.08392463099697905
4.032,0.08684282009286931
4.034,0.08971716807832883
4.0360000000000005,0.09254529884079529
4.038,0.09532489717400322
4.04,0.09805371181630165
4.042,0.10072955839880052
4.0440000000000005,0.10335032229921952
4.046,0.10591396139741854
4.048,0.10841850872873429
4.05,0.11086207503138497
4.0520000000000005,0.11324285118436363
4.054,0.11555911053239117
4.056,0.11780921109468231
4.058,0.11999159765438722
4.0600000000000005,0.12210480372581414
4.062,0.12414745339664696
4.064,0.12611826304260115
4.066,0.12801604291209648
4.0680000000000005,0.12983969857874617
4.07,0.1315882322596293
4.072,0.13326074399751345
4.074,0.13485643270537936
4.0760000000000005,0.1363745970718026
4.078,0.13781463632593866
4.08,0.13917605086106763
4.082,0.14045844271583668
4.0840000000000005,0.14166151591256143
4.086,0.1427850766521336
4.088,0.14382903336530017
4.09,0.14479339662026736
4.0920000000000005,0.14567827888680207
4.094,0.14648389415719448
4.096,0.14721055742466108
4.098,0.14785868401995458
4.1,0.14842878880716312
4.102,0.14892148523987433
4.104,0.14933748427906934
4.106,0.14967759317433366
4.108,0.14994271411013171
4.11,0.1501338427191101
4.112,0.150252066464573
4.114,0.1502985628944579
4.116,0.15027459776932353
4.118,0.1501815230670404
4.12,0.15002077486705412
4.122,0.1497938711172517
4.124,0.1495024092866365
4.126,0.14914806390718086
4.128,0.14873258400836925
4.13,0.14825779044811715
4.132,0.1477255731438759
4.134,0.14713788820789553
4.136,0.14649675499074138
4.138,0.1458042530372837
4.14,0.145062518959532
4.142,0.14427374323076184
4.144,0.14344016690553918
4.146,0.14256407827030382
4.148,0.14164780942932004
4.15,0.14069373283085893
4.152,0.139704257738571
4.154,0.1386818266530978
4.156,0.13762891168901956
4.158,0.13654801091232086
4.16,0.1354416446436005
4.162,0.1343123517322868
4.164,0.13316268580720192
4.166,0.13199521150879562
4.168,0.13081250070845257
4.17,0.12961712872023612
4.172,0.12841167051050034
4.174,0.12719869691076255
4.176,0.12598077083923254
4.178,0.12476044353640335
4.18,0.12354025082005445
4.182,0.12232270936501898
4.184,0.12111031301301944
4.186,0.11990552911781782
4.188,0.1187107949309169
4.19,0.11752851403293632
4.192,0.11636105281577869
4.194,0.11521073702057334
4.196,0.11407984833635408
4.198,0.11297062106430963
4.2,0.11188523885235786
4.202,0.11082583150470639
4.204,0.10979447187093791
4.206,0.1087931728190608
4.208,0.10782388429683812
4.21,0.10688849048557081
4.212,0.1059888070504127
4.214,0.10512657849111247
4.216,0.10430347559697879
4.218,0.10352109300967398
4.22,0.102780946897328
4.222,0.10208447274327617
4.224,0.10143302325257178
4.226,0.10082786637926058
4.228,0.10027018347722397
4.23,0.09976106757722822
4.232,0.0993015217926349
4.234,0.09889245785603787
4.236,0.09853469478892213
4.238,0.09822895770622969
4.24,0.09797587675754418
4.242,0.09777598620639465
4.244,0.09762972364899777
4.246,0.0975374293735475
4.248,0.09749934586096451
4.25,0.09751561742782013
4.252,0.09758629001194027
4.2540000000000004,0.0977113111009976
4.256,0.09789052980419122
4.258,0.09812369706691498
4.26,0.09841046602810594
4.2620000000000005,0.09875039251976628
4.264,0.09914293570794488
4.266,0.09958745887426955
4.268,0.10008323033691234
4.2700000000000005,0.10062942450967813
4.272,0.10122512309770926
4.274,0.10186931642810015
4.276,0.10256090491353015
4.2780000000000005,0.10329870064682409
4.28,0.10408142912417565
4.282,0.10490773109457524
4.284,0.10577616453280492
4.2860000000000005,0.10668520673319835
4.288,0.10763325652116959
4.29,0.10861863657937736
4.292,0.10963959588519347
4.2940000000000005,0.11069431225601235
4.296,0.11178089499877572
4.298,0.11289738765993132
4.3,0.1140417708719155
4.3020000000000005,0.11521196529209299
4.304,0.11640583462997785
4.306,0.11762118875841582
4.308,0.11885578690429
4.3100000000000005,0.12010734091421749
4.312,0.12137351859056097
4.314,0.12265194709302824
4.316,0.12394021640098568
4.3180000000000005,0.125235882831564
4.32,0.12653647260854575
4.322,0.12783948547693355
4.324,0.12914239835806265
4.3260000000000005,0.1304426690400294
4.328,0.13173773989819318
4.33,0.13302504164043455
4.332,0.13430199707182855
4.3340000000000005,0.13556602487338099
4.336,0.13681454338941343
4.338,0.13804497441822472
4.34,0.1392547470005987
4.3420000000000005,0.1404413012007644
4.344,0.141602091874421
4.346,0.14273459241843756
4.348,0.14383629849689558
4.3500000000000005,0.14490473173813762
4.352,0.14593744339756531
4.354,0.14693201798094813
4.356,0.1478860768230692
4.358,0.1487972816166123
4.36,0.14966333788623343
4.362,0.15048199840287294
4.364,0.15125106653342202
4.366,0.15196839952095678
4.368,0.1526319116908659
4.37,0.15323957757827025
4.372,0.15378943497228803
4.374,0.15427958787276788
4.376,0.1547082093552842
4.378,0.15507354434027854
4.38,0.15537391226239458
4.382,0.15560770963618517
4.384,0.15577341251450758
4.386,0.15586957883610175
4.388,0.1558948506589668
4.39,0.15584795627635076
4.392,0.1557277122123033
4.394,0.15553302509393527
4.396,0.15526289339768878
4.398,0.15491640906710527
4.4,0.15449275899976855
4.402,0.15399122640127086
4.404,0.15341119200424605
4.406,0.15275213515071684
4.408,0.1520136347361705
4.41,0.15119537001400368
4.412,0.1502971212591447
4.414,0.149318770289896
4.416,0.14826030084720476
4.418,0.14712179883080112
4.42,0.14590345239182628
4.422,0.14460555188179253
4.424,0.14322848965790655
4.426,0.14177275974500453
4.428,0.14023895735453765
4.43,0.13862777826126294
4.432,0.13694001803848693
4.434,0.13517657115291487
4.436,0.1333384299203522
4.438,0.13142668332371205
4.44,0.12944251569496834
4.442,0.12738720526289693
4.444,0.125262122568618
4.446,0.12306872875117535
4.448,0.12080857370553257
4.45,0.11848329411558237
4.452,0.11609461136491292
4.454,0.11364432932827315
4.456,0.11113433204683404
4.458,0.10856658129051543
4.46,0.10594311401079298
4.462,0.1032660396875826
4.464,0.1005375375739222
4.466,0.09775985384234451
4.468,0.09493529863692475
4.47,0.09206624303519621
4.472,0.08915511592417869
4.474,0.08620440079494332
4.476,0.0832166324602072
4.478,0.08019439369960618
4.48,0.07714031183736186
4.482,0.07405705525716941
4.484,0.07094732985921377
4.486,0.06781387546432298
4.488,0.0646594621703164
4.49,0.06148688666570057
4.492,0.05829896850588448
4.494,0.05509854635720575
4.496,0.05188847421402727
4.498,0.04867161759427542
4.5,0.04545084971874784
4.502,0.04222904767961953
4.5040000000000004,0.039009088603528634
4.506,0.03579384581466018
4.508,0.03258618500324108
4.51,0.029388960404852435
4.5120000000000005,0.026205010995948713
4.514,0.023037156710957157
4.516,0.019888194686268616
4.518,0.016760895536457446
4.5200000000000005,0.013657999667943777
4.522,0.010582213635331626
4.524,0.007536206545523855
4.526,0.004522606514722478
4.5280000000000005,0.0015439971832856957
4.53,-0.0013970857066383149
4.532,-0.004298157665877126
4.534,-0.007156788740669204
4.5360000000000005,-0.009970606718146403
4.538,-0.01273730025033422
4.54,-0.015454621892301984
4.542,-0.018120391050141335
4.5440000000000005,-0.020732496834656684
4.546,-0.02328890081672557
4.548,-0.025787639680481197
4.55,-0.028226827770552937
4.5520000000000005,-0.030604659529801688
4.554,-0.03291941182412041
4.556,-0.03516944615103863
4.558,-0.03735321072901672
4.5600000000000005,-0.03946924246451197
4.562,-0.041516168794047535
4.564,-0.04349270939871917
4.566,-0.045397677788719316
4.5680000000000005,-0.047229982755682895
4.57,-0.04898862969081175
4.572,-0.05067272176695782
4.574,-0.05228146098300438
4.5760000000000005,-0.053814149069108225
4.578,-0.05527018825154778
4.58,-0.05664908187612981
4.582,-0.05795043488929803
4.5840000000000005,-0.05917395417630018
4.586,-0.06031944875596449
4.588,-0.06138682983184824
4.59,-0.06237611069971375
4.5920000000000005,-0.06328740651150173
4.594,-0.06412093389617012
4.596,-0.06487701043797162
4.598,-0.0655560540129426
4.6000000000000005,-0.06615858198458267
4.602,-0.06668521025989568
4.604,-0.06713665220717396
4.606,-0.06751371743708588
4.6080000000000005,-0.06781731044884134
4.61,-0.06804842914338123
4.612,-0.06820816320574184
4.614,-0.06829769235892376
4.616,-0.0683182844917688
4.618,-0.0682712936635487
4.62,-0.06815815798812246
4.622,-0.06798039740070065
4.624,-0.06773961131042207
4.626,-0.06743747614210219
4.628,-0.06707574277068655
4.63,-0.06665623385206682
4.632,-0.06618084105409691
4.634,-0.06565152219176368
4.636,-0.0650702982706081
4.638,-0.06443925044263449
4.64,-0.06376051687904931
4.642,-0.0630362895643094
4.644,-0.06226881101605969
4.646,-0.06146037093563527
4.648,-0.06061330279393499
4.65,-0.05972998035751857
4.652,-0.058812814159912456
4.654,-0.057864247923136825
4.656,-0.05688675493458699
4.658,-0.05588283438442786
4.66,-0.05485500766872724
4.662,-0.05380581466361403
4.664,-0.05273780997576601
4.666,-0.05165355917458729
4.668,-0.05055563501144917
4.67,-0.049446613631373856
4.672,-0.0483290707825908
4.674,-0.047205578029344435
4.676,-0.04607869897337849
4.678,-0.04495098548946276
4.68,-0.0438249739803516
4.682,-0.042703181656501055
4.684,-0.041588102845849226
4.686,-0.04048220533893072
4.688,-0.039387926774522714
4.69,-0.03830767107098579
4.692,-0.0372438049083855
4.694,-0.03619865426639722
4.696,-0.03517450102294907
4.698,-0.034173579618430434
4.7,-0.03319807379024103
4.702,-0.03225011338231083
4.704,-0.0313317712341608
4.706,-0.03044506015392518
4.708,-0.029591929979648154
4.71,-0.028774264733050513
4.712,-0.027993879869813616
4.714,-0.027252519630306036
4.716,-0.026551854494526454
4.718,-0.02589347874488009
4.72,-0.025278908140279
4.722,-0.02470957770486141
4.724,-0.02418683963449776
4.726,-0.023711961324049867
4.728,-0.023286123518208766
4.73,-0.0229104185885374
4.732,-0.022585848939172978
4.734,-0.022313325543465434
4.736,-0.02209366661363118
4.738,-0.021927596405322068
4.74,-0.021815744158811386
4.742,-0.021758643178302138
4.744,-0.02175673005067596
4.746,-0.021810344004789144
4.748,-0.021919726412233595
4.75,-0.022085020430271177
4.752,-0.022306270787451666
4.7540000000000004,-0.022583423712219684
4.756,-0.022916327004611742
4.758,-0.023304730250943144
4.76,-0.023748285181177435
4.7620000000000005,-0.024246546168470752
4.764,-0.02479897087017733
4.766,-0.02540492100940874
4.768,-0.026063663296025615
4.7700000000000005,-0.026774370485758665
4.772,-0.02753612257594133
4.774,-0.028347908136161594
4.776,-0.029208625771927222
4.7780000000000005,-0.030117085719264906
4.78,-0.031072011567982102
4.782,-0.03207204211113419
4.784,-0.03311573331806552
4.7860000000000005,-0.03420156042820999
4.788,-0.03532792016266746
4.79,-0.03649313305041665
4.792,-0.03769544586583054
4.7940000000000005,-0.03893303417404299
4.796,-0.04020400498051878
4.798,-0.041506399481076026
4.8,-0.04283819590841943
4.8020000000000005,-0.044197312471141496
4.804,-0.04558161038100407
4.806,-0.04698889696418033
4.808,-0.04841692885203041
4.8100000000000005,-0.04986341524685786
4.812,-0.051326021257992065
4.814,-0.05280237130345756
4.816,-0.0542900525723551
4.8180000000000005,-0.05578661854304826
4.82,-0.057289592552115104
4.822,-0.058796471409003924
4.824,-0.06030472905121621
4.8260000000000005,-0.06181182023481908
4.828,-0.06331518425502876
4.83,-0.06481224869154929
4.832,-0.06630043317333842
4.8340000000000005,-0.06777715315742383
4.836,-0.06923982371638059
4.838,-0.07068586332908378
4.84,-0.07211269766930499
4.8420000000000005,-0.07351776338677474
4.844,-0.07489851187529231
4.846,-0.07625241302253459
4.848,-0.0775769589361898
4.8500000000000005,-0.07886966764111125
4.852,-0.08012808674221768
4.854,-0.08134979704790411
4.856,-0.0825324161488004
4.8580000000000005,-0.08367360194676003
4.86,-0.08477105612904287
4.862,-0.08582252758274311
4.864,-0.08682581574456168
4.866,-0.08777877388116351
4.868,-0.08867931229541541
4.87,-0.0895254014539269
4.872,-0.09031507503143513
4.874,-0.09104643286765976
4.876,-0.091717643832422
4.878,-0.09232694859490853
4.88,-0.09287266229313881
4.882,-0.09335317709979506
4.884,-0.09376696468075071
4.886,-0.09411257854277918
4.888,-0.09438865626706457
4.89,-0.09459392162532673
4.892,-0.09472718657550896
4.894,-0.09478735313417887
4.896,-0.09477341512293615
4.898,-0.0946844597863233
4.9,-0.09451966927891212
4.902,-0.09427832201941316
4.904,-0.09395979390985858
4.906,-0.0935635594180946
4.908,-0.09308919252200842
4.91,-0.09253636751412368
4.912,-0.09190485966537686
4.914,-0.0911945457471131
4.916,-0.09040540441051374
4.918,-0.08953751642289177
4.92,-0.08859106476047994
4.922,-0.08756633455755077
4.924,-0.08646371291190307
4.926,-0.08528368854696088
4.928,-0.08402685133092398
4.93,-0.08269389165362662
4.932,-0.08128559966194954
4.934,-0.07980286435483888
4.936,-0.07824667253918009
4.938,-0.07661810764797806
4.94,-0.07491834842248646
4.942,-0.07314866746012191
4.944,-0.07131042963018745
4.946,-0.06940509035962955
4.948,-0.06743419379121487
4.95,-0.06539937081672338
4.952,-0.06330233698789522
4.954,-0.06114489030808461
4.956,-0.058928908907706086
4.958,-0.05665634860674899
4.96,-0.05432924036777524
4.962,-0.051949687642993264
4.964,-0.04951986361913531
4.966,-0.04704200836401808
4.968,-0.044518425878791935
4.97,-0.04195148106005005
4.972,-0.0393435965760547
4.974,-0.03669724966150451
4.976,-0.03401496883532465
4.978,-0.03129933054614704
4.98,-0.028552955750178598
4.982,-0.025778506426294014
4.984,-0.022978682033259274
4.986,-0.020156215914091027
4.988,-0.01731387165261818
4.99,-0.014454439387380462
4.992,-0.011580732088062954
4.994,-0.00869558179973176
4.996,-0.005801835860145644
4.998,-0.0029023530955097298
5.0,-6.381647784830887e-16
5.002,0.0029023530955091647
5.0040000000000004,0.005801835860146059
5.006,0.008695581799731199
5.008,0.011580732088062394
5.01,0.014454439387379905
5.0120000000000005,0.017313871652618586
5.014,0.020156215914090475
5.016,0.022978682033258726
5.018,0.02577850642629347
5.0200000000000005,0.028552955750179302
5.022,0.031299330546146496
5.024,0.03401496883532412
5.026,0.036697249661504006
5.0280000000000005,0.039343596576055385
5.03,0.04195148106004954
5.032,0.04451842587879143
5.034,0.04704200836401759
5.0360000000000005,0.04951986361913597
5.038,0.05194968764299279
5.04,0.054329240367774784
5.042,0.056656348606748536
5.0440000000000005,0.0589289089077067
5.046,0.06114489030808418
5.048,0.06330233698789482
5.05,0.06539937081672298
5.0520000000000005,0.06743419379121544
5.054,0.06940509035962915
5.056,0.07131042963018708
5.058,0.07314866746012157
5.0600000000000005,0.07491834842248674
5.062,0.07661810764797773
5.064,0.07824667253917977
5.066,0.07980286435483859
5.0680000000000005,0.0812855996619497
5.07,0.08269389165362635
5.072,0.08402685133092375
5.074,0.08528368854696065
5.0760000000000005,0.08646371291190319
5.078,0.08756633455755057
5.08,0.08859106476047975
5.082,0.0895375164228916
5.0840000000000005,0.09040540441051378
5.086,0.09119454574711296
5.088,0.09190485966537673
5.09,0.09253636751412357
5.0920000000000005,0.09308919252200867
5.094,0.09356355941809427
5.096,0.09395979390985826
5.098,0.09427832201941287
5.1000000000000005,0.09451966927891231
5.102,0.09468445978632328
5.104,0.09477341512293615
5.106,0.0947873531341791
5.1080000000000005,0.09472718657550884
5.11,0.09459392162532652
5.112,0.09438865626706464
5.114,0.09411257854277924
5.1160000000000005,0.0937669646807508
5.118,0.09335317709979515
5.12,0.09287266229313912
5.122,0.09232694859490889
5.124,0.09171764383242233
5.126,0.09104643286765988
5.128,0.09031507503143528
5.13,0.08952540145392705
5.132,0.08867931229541559
5.134,0.08777877388116388
5.136,0.08682581574456208
5.138,0.0858225275827435
5.14,0.0847710561290429
5.142,0.08367360194675974
5.144,0.08253241614880061
5.146,0.08134979704790433
5.148,0.08012808674221791
5.15,0.07886966764111114
5.152,0.07757695893618989
5.154,0.07625241302253469
5.156,0.07489851187529242
5.158,0.07351776338677389
5.16,0.07211269766930527
5.162,0.07068586332908405
5.164,0.06923982371638086
5.166,0.0677771531574235
5.168,0.06630043317333857
5.17,0.06481224869154945
5.172,0.06331518425502906
5.174,0.06181182023481886
5.176,0.06030472905121652
5.178,0.05879647140900437
5.18,0.05728959255211552
5.182,0.05578661854304728
5.184,0.05429005257235527
5.186,0.05280237130345786
5.188,0.051326021257992335
5.19,0.04986341524685765
5.192,0.04841692885203076
5.194,0.046988896964180696
5.196,0.04558161038100443
5.198,0.04419731247114119
5.2,0.042838195908419696
5.202,0.04150639948107629
5.204,0.04020400498051902
5.206,0.03893303417404227
5.208,0.037695445865830846
5.21,0.03649313305041694
5.212,0.03532792016266763
5.214,0.034201560428209765
5.216,0.033115733318065714
5.218,0.0320720421111344
5.22,0.03107201156798229
5.222,0.030117085719264768
5.224,0.02920862577192736
5.226,0.02834790813616172
5.228,0.02753612257594146
5.23,0.026774370485758273
5.232,0.026063663296025746
5.234,0.02540492100940888
5.236,0.02479897087017743
5.238,0.024246546168470662
5.24,0.023748285181177525
5.242,0.023304730250943234
5.244,0.02291632700461181
5.246,0.022583423712219615
5.248,0.02230627078745172
5.25,0.02208502043027121
5.252,0.021919726412233602
5.2540000000000004,0.021810344004789185
5.256,0.021756730050675983
5.258,0.021758643178302138
5.26,0.021815744158811358
5.2620000000000005,0.02192759640532206
5.264,0.02209366661363108
5.266,0.022313325543465327
5.268,0.022585848939172856
5.2700000000000005,0.022910418588537484
5.272,0.02328612351820871
5.274,0.023711961324049784
5.276,0.024186839634497668
5.2780000000000005,0.02470957770486186
5.28,0.025278908140278798
5.282,0.025893478744879857
5.284,0.02655185449452642
5.2860000000000005,0.0272525196303062
5.288,0.027993879869813464
5.29,0.02877426473305036
5.292,0.029591929979647998
5.2940000000000005,0.030445060153925247
5.296,0.031331771234160505
5.298,0.03225011338231077
5.3,0.033198073790240964
5.3020000000000005,0.034173579618431246
5.304,0.03517450102294887
5.306,0.036198654266397005
5.308,0.03724380490838531
5.3100000000000005,0.03830767107098602
5.312,0.03938792677452264
5.314,0.04048220533893064
5.316,0.041588102845849004
5.3180000000000005,0.042703181656501145
5.32,0.0438249739803514
5.322,0.04495098548946254
5.324,0.04607869897337808
5.3260000000000005,0.04720557802934541
5.328,0.04832907078259078
5.33,0.04944661363137363
5.332,0.05055563501144896
5.3340000000000005,0.05165355917458733
5.336,0.0527378099757656
5.338,0.05380581466361361
5.34,0.054855007668726835
5.3420000000000005,0.05588283438442811
5.344,0.05688675493458679
5.346,0.057864247923136644
5.348,0.058812814159912276
5.3500000000000005,0.05972998035751923
5.352,0.060613302793934606
5.354,0.06146037093563487
5.356,0.06226881101605976
5.3580000000000005,0.0630362895643096
5.36,0.06376051687904917
5.362,0.06443925044263436
5.364,0.06507029827060797
5.3660000000000005,0.06565152219176361
5.368,0.06618084105409656
5.37,0.06665623385206698
5.372,0.06707574277068669
5.3740000000000006,0.06743747614210283
5.376,0.067739611310422
5.378,0.06798039740070064
5.38,0.06815815798812246
5.382,0.06827129366354844
5.384,0.06831828449176909
5.386,0.06829769235892405
5.388,0.06820816320574216
5.39,0.06804842914338124
5.392,0.0678173104488411
5.394,0.06751371743708595
5.396,0.06713665220717376
5.398,0.0666852102598955
5.4,0.06615858198458265
5.402,0.06555605401294273
5.404,0.06487701043797174
5.406,0.06412093389617025
5.408,0.06328740651150148
5.41,0.062376110699713605
5.412,0.061386829831848136
5.414,0.06031944875596437
5.416,0.059173954176300066
5.418,0.0579504348892983
5.42,0.05664908187613007
5.422,0.05527018825154807
5.424,0.05381414906910772
5.426,0.052281460983004374
5.428,0.05067272176695849
5.43,0.0489886296908124
5.432,0.04722998275568249
5.434,0.045397677788719684
5.436,0.04349270939871956
5.438,0.04151616879404794
5.44,0.039469242464511396
5.442,0.03735321072901748
5.444,0.03516944615103942
5.446,0.0329194118241212
5.448,0.030604659529801022
5.45,0.028226827770553416
5.452,0.02578763968048168
5.454,0.02328890081672571
5.456,0.020732496834655844
5.458,0.018120391050142196
5.46,0.015454621892302865
5.462,0.012737300250334758
5.464,0.00997060671814567
5.466,0.007156788740669768
5.468,0.004298157665877336
5.47,0.0013970857066385421
5.472,-0.0015439971832861103
5.474,-0.004522606514721897
5.476,-0.007536206545523269
5.478,-0.010582213635331019
5.48,-0.01365799966794524
5.482,-0.016760895536457196
5.484,-0.01988819468626836
5.486,-0.0230371567109569
5.488,-0.026205010995949178
5.49,-0.029388960404851804
5.492,-0.03258618500324046
5.494,-0.03579384581465955
5.496,-0.03900908860352946
5.498,-0.042229047679619255
5.5,-0.04545084971874685
5.502,-0.04867161759427444
5.5040000000000004,-0.051888474214028445
5.506,-0.055098546357205125
5.508,-0.058298968505883855
5.51,-0.061486886665699944
5.5120000000000005,-0.06465946217031722
5.514,-0.06781387546432202
5.516,-0.07094732985921282
5.518,-0.07405705525716846
5.5200000000000005,-0.07714031183736265
5.522,-0.08019439369960558
5.524,-0.0832166324602066
5.526,-0.08620440079494274
5.5280000000000005,-0.0891551159241791
5.53,-0.0920662430351953
5.532,-0.09493529863692386
5.534,-0.09775985384234397
5.5360000000000005,-0.10053753757392295
5.538,-0.10326603968758208
5.54,-0.10594311401079282
5.542,-0.10856658129051525
5.5440000000000005,-0.11113433204683443
5.546,-0.11364432932827231
5.548,-0.11609461136491245
5.55,-0.11848329411558191
5.5520000000000005,-0.12080857370553319
5.554,-0.12306872875117525
5.556,-0.1252621225686179
5.558,-0.12738720526289685
5.5600000000000005,-0.12944251569496856
5.562,-0.13142668332371166
5.564,-0.13333842992035183
5.566,-0.13517657115291454
5.5680000000000005,-0.1369400180384875
5.57,-0.1386277782612629
5.572,-0.14023895735453762
5.574,-0.14177275974500395
5.5760000000000005,-0.1432284896579067
5.578,-0.1446055518817923
5.58,-0.14590345239182606
5.582,-0.14712179883080087
5.5840000000000005,-0.14826030084720515
5.586,-0.1493187702898955
5.588,-0.15029712125914424
5.59,-0.1511953700140032
5.5920000000000005,-0.15201363473617086
5.594,-0.15275213515071673
5.596,-0.1534111920042459
5.598,-0.15399122640127075
5.6000000000000005,-0.15449275899976855
5.602,-0.15491640906710497
5.604,-0.15526289339768848
5.606,-0.1555330250939352
5.6080000000000005,-0.15572771221230353
5.61,-0.15584795627635076
5.612,-0.15589485065896708
5.614,-0.15586957883610206
5.6160000000000005,-0.15577341251450744
5.618,-0.15560770963618498
5.62,-0.1553739122623946
5.622,-0.1550735443402786
5.6240000000000006,-0.1547082093552843
5.626,-0.15427958787276821
5.628,-0.15378943497228834
5.63,-0.15323957757827056
5.632,-0.15263191169086582
5.634,-0.15196839952095695
5.636,-0.15125106653342216
5.638,-0.1504819984028731
5.64,-0.14966333788623362
5.642,-0.14879728161661268
5.644,-0.1478860768230696
5.646,-0.14693201798094813
5.648,-0.14593744339756531
5.65,-0.14490473173813734
5.652,-0.1438362984968958
5.654,-0.1427345924184378
5.656,-0.14160209187442124
5.658,-0.14044130120076448
5.66,-0.13925474700059876
5.662,-0.1380449744182248
5.664,-0.13681454338941348
5.666,-0.13556602487338087
5.668,-0.1343019970718288
5.67,-0.1330250416404348
5.672,-0.1317377398981936
5.674,-0.1304426690400291
5.676,-0.1291423983580628
5.678,-0.1278394854769338
5.68,-0.126536472608546
5.682,-0.12523588283156387
5.684,-0.12394021640098592
5.686,-0.1226519470930286
5.688,-0.12137351859056136
5.69,-0.12010734091421724
5.692,-0.11885578690429024
5.694,-0.11762118875841604
5.696,-0.11640583462997808
5.698,-0.11521196529209284
5.7,-0.11404177087191582
5.702,-0.11289738765993163
5.704,-0.11178089499877587
5.706,-0.11069431225601215
5.708,-0.10963959588519367
5.71,-0.10861863657937754
5.712,-0.10763325652116978
5.714,-0.10668520673319823
5.716,-0.10577616453280515
5.718,-0.10490773109457537
5.72,-0.10408142912417574
5.722,-0.1032987006468239
5.724,-0.10256090491353027
5.726,-0.10186931642810029
5.728,-0.10122512309770937
5.73,-0.10062942450967806
5.732,-0.10008323033691242
5.734,-0.0995874588742696
5.736,-0.09914293570794495
5.738,-0.09875039251976622
5.74,-0.09841046602810599
5.742,-0.09812369706691504
5.744,-0.09789052980419122
5.746,-0.09771131110099757
5.748,-0.09758629001194032
5.75,-0.09751561742782013
5.752,-0.09749934586096454
5.7540000000000004,-0.0975374293735475
5.756,-0.09762972364899776
5.758,-0.09777598620639456
5.76,-0.09797587675754409
5.7620000000000005,-0.09822895770622975
5.764,-0.09853469478892207
5.766,-0.09889245785603779
5.768,-0.09930152179263482
5.7700000000000005,-0.09976106757722827
5.772,-0.1002701834772238
5.774,-0.10082786637926039
5.776,-0.10143302325257156
5.7780000000000005,-0.10208447274327634
5.78,-0.10278094689732786
5.782,-0.10352109300967384
5.784,-0.10430347559697864
5.7860000000000005,-0.10512657849111255
5.788,-0.10598880705041243
5.79,-0.10688849048557075
5.792,-0.10782388429683804
5.7940000000000005,-0.10879317281906102
5.796,-0.1097944718709377
5.798,-0.11082583150470618
5.8,-0.11188523885235764
5.8020000000000005,-0.11297062106430972
5.804,-0.11407984833635401
5.806,-0.11521073702057327
5.808,-0.1163610528157786
5.8100000000000005,-0.11752851403293645
5.812,-0.11871079493091667
5.814,-0.1199055291178176
5.816,-0.12111031301301904
5.8180000000000005,-0.12232270936501927
5.82,-0.1235402508200544
5.822,-0.1247604435364033
5.824,-0.12598077083923231
5.8260000000000005,-0.12719869691076263
5.828,-0.1284116705105001
5.83,-0.12961712872023567
5.832,-0.13081250070845216
5.8340000000000005,-0.1319952115087959
5.836,-0.13316268580720167
5.838,-0.1343123517322866
5.84,-0.13544164464360028
5.8420000000000005,-0.13654801091232088
5.844,-0.1376289116890191
5.846,-0.13868182665309736
5.848,-0.1397042577385706
5.8500000000000005,-0.1406937328308592
5.852,-0.14164780942931987
5.854,-0.14256407827030362
5.856,-0.143440166905539
5.8580000000000005,-0.14427374323076245
5.86,-0.1450625189595316
5.862,-0.14580425303728384
5.864,-0.1464967549907415
5.8660000000000005,-0.14713788820789572
5.868,-0.14772557314387585
5.87,-0.14825779044811704
5.872,-0.14873258400836917
5.8740000000000006,-0.14914806390718074
5.876,-0.14950240928663674
5.878,-0.14979387111725195
5.88,-0.1500207748670544
5.882000000000001,-0.15018152306704066
5.884,-0.1502745977693235
5.886,-0.1502985628944579
5.888,-0.150252066464573
5.89,-0.1501338427191098
5.892,-0.14994271411013207
5.894,-0.14967759317433404
5.896,-0.14933748427906945
5.898,-0.14892148523987442
5.9,-0.1484287888071632
5.902,-0.1478586840199544
5.904,-0.14721055742466088
5.906,-0.14648389415719426
5.908,-0.14567827888680202
5.91,-0.14479339662026758
5.912,-0.14382903336530037
5.914,-0.1427850766521338
5.916,-0.141661515912561
5.918,-0.1404584427158366
5.92,-0.13917605086106755
5.922,-0.1378146363259393
5.924,-0.13637459707180247
5.926,-0.1348564327053797
5.928,-0.13326074399751375
5.93,-0.1315882322596296
5.932,-0.1298396985787456
5.934,-0.1280160429120965
5.936,-0.12611826304260187
5.938,-0.12414745339664772
5.94,-0.1221048037258136
5.942,-0.11999159765438763
5.944,-0.11780921109468273
5.946,-0.11555911053239162
5.948,-0.11324285118436332
5.95,-0.11086207503138579
5.952,-0.10841850872873512
5.954,-0.10591396139741906
5.956,-0.10335032229921881
5.958,-0.10072955839880104
5.96,-0.09805371181630218
5.962,-0.09532489717400336
5.964,-0.09254529884079432
5.966,-0.08971716807832977
5.968,-0.08684282009286991
5.97,-0.08392463099697964
5.972,-0.08096503468535085
5.974,-0.0779665196291533
5.976,-0.07493162559342446
5.978,-0.07186294028213336
5.98,-0.0687630959156402
5.982,-0.06563476574538282
5.984,-0.062480660510685
5.986,-0.05930352484271194
5.988,-0.05610613362061141
5.99,-0.052891288285013736
5.992,-0.04966181311404553
5.994,-0.04642055146715668
5.996,-0.04317036200202391
5.998,-0.03991411486988912
6.0,-0.03665468789467764
6.002,-0.033394962741306544
6.0040000000000004,-0.03013782107857739
6.006,-0.026886140742077923
6.008,-0.02364279190247525
6.01,-0.02041063324464878
6.0120000000000005,-0.01719250816301855
6.014,-0.013991240978460575
6.016,-0.01080963318211162
6.018,-0.0076504597114038925
6.0200000000000005,-0.004516465263551886
6.022,-0.0014103606517019765
6.024,0.001665180791127461
6.026,0.004707526755224626
6.0280000000000005,0.007714089439507552
6.03,0.010682328974057562
6.032,0.013609756775070717
6.034,0.016493938827455756
6.0360000000000005,0.019332498890492843
6.038,0.02212312162200621
6.04,0.024863555616678048
6.042,0.02755161635419875
6.0440000000000005,0.03018518905311953
6.046,0.0327622314263835
6.048,0.035280776334665434
6.05,0.037738934333777466
6.0520000000000005,0.04013489611256629
6.054,0.04246693481787099
6.056,0.04473340826328595
6.058,0.046932761018610755
6.0600000000000005,0.04906352637707392
6.062,0.051124328197552346
6.064,0.0531138826192329
6.066,0.05503099964628612
6.0680000000000005,0.05687458460036243
6.07,0.05864363943886227
6.072,0.060337263937167734
6.074,0.06195465673316841
6.0760000000000005,0.06349511623264785
6.078,0.0649580413742712
6.08,0.06634293225313549
6.082,0.0676493906020176
6.0840000000000005,0.06887712012967624
6.086,0.07002592671576585
6.088,0.07109571846212129
6.09,0.07208650560036522
6.0920000000000005,0.0729984002560149
6.094,0.07383161606944774
6.096,0.07458646767431384
6.098,0.07526337003414565
6.1000000000000005,0.07586283763816606
6.102,0.07638548355745382
6.104,0.07683201836284885
6.106,0.07720324890616355
6.1080000000000005,0.07750007696646354
6.11,0.07772349776338047
6.112,0.07787459833958851
6.114,0.07795455581478779
6.1160000000000005,0.07796463551369949
6.118,0.07790618897076063
6.12,0.07778065181439572
6.122,0.07758954153388681
6.1240000000000006,0.07733445513205683
6.126,0.07701706666712951
6.128,0.07663912468727593
6.13,0.07620244956154333
6.132000000000001,0.07570893071096489
6.134,0.07516052374383268
6.136,0.07455924749921508
6.138,0.07390718100296054
6.140000000000001,0.07320646034053459
6.142,0.07245927545115806
6.144,0.0716678668478335
6.146,0.07083452226794101
6.148,0.06996157325919455
6.15,0.06905139170583263
6.152,0.06810638629999746
6.154,0.06712899896335786
6.156,0.06612170122406145
6.158,0.0650869905542108
6.16,0.06402738667308018
6.162,0.06294542782134079
6.164,0.06184366701163277
6.166,0.060724668260807635
6.168,0.05959100280924508
6.17,0.05844524533260447
6.172,0.05728997015144684
6.174,0.05612774744411564
6.176,0.05496113946827619
6.178,0.05379269679651507
6.18,0.05262495457135247
6.182,0.05146042878501941
6.184,0.05030161258930372
6.186,0.049150972640708154
6.188,0.04801094548616245
6.19,0.04688393399440956
6.192,0.045772303838181566
6.194,0.044678380032153034
6.196,0.043604443531629705
6.198,0.04255272789680892
6.2,0.04152541602736455
6.202,0.04052463697201763
6.204,0.03955246281763252
6.206,0.038610905662278615
6.208,0.03770191467656935
6.21,0.03682737325745731
6.212,0.035989096278559354
6.214,0.03518882744091106
6.216,0.0344282367279411
6.218,0.03370891796827782
6.22,0.03303238650987424
6.222,0.03240007700875724
6.224,0.0318133413355513
6.226,0.03127344660276621
6.228,0.03078157331565029
6.23,0.03033881364925286
6.232,0.02994616985414577
6.234,0.029604552793073377
6.236,0.029314780610623172
6.238,0.029077577537803906
6.24,0.02889357283324286
6.242,0.028763299862502124
6.244,0.02868719531683344
6.246,0.028665598572480314
6.248,0.028698751191440677
6.25,0.02878679656440357
6.252,0.028929779696366183
6.2540000000000004,0.029127647135238854
6.256,0.02938024704353836
6.258,0.02968732941306943
6.26,0.03004854642228618
6.2620000000000005,0.030463452935828354
6.264,0.03093150714551572
6.266,0.031452071351894616
6.268,0.03202441288521653
6.2700000000000005,0.03264770516454106
6.272,0.03332102889345413
6.274,0.03404337339069692
6.276,0.0348136380538129
6.2780000000000005,0.035630633953722644
6.28,0.03649308555796148
6.282,0.03739963258012187
6.284,0.03834883195286299
6.2860000000000005,0.039339159921685095
6.288,0.04036901425647343
6.29,0.04143671657767702
6.292,0.04254051479379225
6.2940000000000005,0.04367858564668727
6.296,0.044849037361141784
6.298,0.04604991239482138
6.3,0.04727919028477461
6.3020000000000005,0.048534790586388904
6.304,0.04981457590062698
6.306,0.051116354985224405
6.308,0.05243788594541119
6.3100000000000005,0.05377687949962416
6.312,0.05513100231553407
6.314,0.05649788041166192
6.316,0.057875102619707505
6.3180000000000005,0.0592602241026724
6.32,0.060650769923762324
6.322,0.06204423866097289
6.324,0.06343810606221775
6.3260000000000005,0.06482982873577472
6.328,0.06621684787080229
6.33,0.06759659298261629
6.332,0.06896648567737973
6.3340000000000005,0.07032394343085502
6.336,0.07166638337580641
6.338,0.07299122609267907
6.34,0.07429589939812287
6.3420000000000005,0.0755778421259711
6.344,0.07683450789528044
6.346,0.07806336886005139
6.348,0.0792619194352856
6.3500000000000005,0.0804276799940531
6.352,0.08155820053030809
6.354,0.082651064282215
6.356,0.08370389131081261
6.3580000000000005,0.08471434202891799
6.36,0.08568012067521658
6.362,0.08659897872859425
6.364,0.08746871825781874
6.3660000000000005,0.08828719520179412
6.368,0.08905232257570532
6.37,0.08976207359845903
6.372,0.09041448473696265
6.3740000000000006,0.09100765866288069
6.376,0.09153976711764564
6.378,0.09200905368162025
6.38,0.09241383644344953
6.382000000000001,0.09275251056578743
6.384,0.09302355074371264
6.386,0.09322551355232181
6.388,0.09335703968012989
6.390000000000001,0.09341685604507619
6.392,0.09340377779009883
6.394,0.09331671015541013
6.396,0.09315465022478935
6.398000000000001,0.09291668854336985
6.4,0.09260201060460015
6.402,0.09220989820423037
6.404,0.0917397306593673
6.406,0.09119098589083882
6.408,0.09056324136729069
6.41,0.08985617490965113
6.412,0.08906956535477457
6.414,0.08820329307730208
6.416,0.08725734036895423
6.418,0.08623179167468778
6.42,0.0851268336853466
6.422,0.08394275528664011
6.424,0.08267994736448821
6.426,0.08133890246697754
6.428,0.07992021432336695
6.43,0.07842457722079753
6.432,0.07685278523956084
6.434,0.07520573134796718
6.436,0.07348440635806733
6.438,0.0716898977436825
6.44,0.06982338832237779
6.442,0.06788615480322649
6.444,0.06587956620236932
6.446,0.06380508212862072
6.448,0.0616642509414829
6.45,0.05945870778417852
6.452,0.05719017249443732
6.454,0.05486044739598366
6.456,0.05247141497382157
6.458,0.050025035436578186
6.46,0.04752334416933888
6.462,0.04496844908054964
6.464,0.042362527846723216
6.466,0.039707825058831935
6.468,0.03700664927437877
6.47,0.03426136997933626
6.472,0.03147441446419567
6.474,0.02864826461855266
6.476,0.025785453648729886
6.478,0.022888562723066996
6.48,0.019960217549612816
6.482,0.017003084891034786
6.484,0.014019869021659779
6.486,0.011013308131647605
6.488,0.007986170683364604
6.49,0.004941251725100003
6.492,0.001881369167306816
6.494,-0.0011906399733504032
6.496,-0.004271923356875705
6.498,-0.007359617124379018
6.5,-0.010450849718747155
6.502,-0.013542745716111925
6.5040000000000004,-0.01663242966274473
6.506,-0.01971702991194387
6.508,-0.022793682455520388
6.51,-0.025859534744460386
6.5120000000000005,-0.02891174949338263
6.514,-0.03194750846341379
6.516,-0.034964016218178004
6.518,-0.03795850384754778
6.5200000000000005,-0.04092823265396152
6.522,-0.043870497796059116
6.524,-0.046782631884544755
6.526,-0.049662008525161574
6.5280000000000005,-0.05250604580381014
6.53,-0.0553122097088919
6.532,-0.0580780174860484
6.534,-0.060801040920574055
6.5360000000000005,-0.06347890954287208
6.538,-0.06610931375243276
6.54,-0.06869000785595777
6.542,-0.07121881301531323
6.5440000000000005,-0.0736936201011966
6.546,-0.07611239244847401
6.548,-0.07847316850933443
6.55,-0.08077406440050668
6.5520000000000005,-0.08301327634097116
6.554,-0.08518908297673489
6.556,-0.08729984758940956
6.558,-0.08934402018548282
6.5600000000000005,-0.09132013946335765
6.562,-0.09322683465539792
6.564,-0.09506282724240775
6.566,-0.0968269325381317
6.5680000000000005,-0.09851806114157502
6.57,-0.10013522025510206
6.572,-0.10167751486649526
6.574,-0.10314414879330908
6.5760000000000005,-0.10453442558809031
6.578,-0.10584774930319506
6.58,-0.10708362511417432
6.582,-0.10824165980085511
6.5840000000000005,-0.10932156208548231
6.586,-0.11032314282746782
6.588,-0.11124631507451706
6.59,-0.11209109397007444
6.5920000000000005,-0.11285759651727391
6.594,-0.11354604119974987
6.596,-0.1141567474598904
6.598,-0.11469013503529915
6.6000000000000005,-0.11514672315444827
6.602,-0.11552712959269523
6.604,-0.11583206959003801
6.606,-0.1160623546321789
6.6080000000000005,-0.1162188910966614
6.61,-0.1163026787660355
6.612,-0.11631480921019485
6.614,-0.11625646404021787
6.6160000000000005,-0.11612891303621958
6.618,-0.11593351215191582
6.62,-0.11567170139874897
6.622,-0.11534500261262888
6.6240000000000006,-0.11495501710648288
6.626,-0.11450342321197703
6.628,-0.113991973713942
6.63,-0.11342249318116356
6.632000000000001,-0.1127968751973703
6.634,-0.11211707949638092
6.636,-0.11138512900549295
6.638,-0.1106031068013696
6.640000000000001,-0.10977315298274899
6.642,-0.10889746146446949
6.644,-0.10797827669737209
6.646,-0.10701789031878338
6.648000000000001,-0.10601863773835957
6.65,-0.1049828946641553
6.652,-0.1039130735739014
6.654,-0.10281162013650763
6.656000000000001,-0.10168100958891424
6.658,-0.10052374307346149
6.66,-0.09934234394099119
6.662,-0.0981393540249836
6.664,-0.09691732989201243
6.666,-0.09567883907389754
6.668,-0.09442645628691737
6.67,-0.09316275964346542
6.672,-0.09189032686157904
6.674,-0.09061173147771835
6.676,-0.08932953906822588
6.678,-0.08804630348482219
6.68,-0.08676456310953805
6.682,-0.08548683713440434
6.684,-0.08421562187120425
6.686,-0.08295338709655956
6.688,-0.08170257243754869
6.69,-0.08046558380302038
6.692,-0.07924478986568782
6.694,-0.07804251860000312
6.696,-0.07686105388077498
6.698,-0.07570263214734772
6.7,-0.07456943913812254
6.702,-0.07346360670004966
6.704,-0.07238720967766069
6.706,-0.07134226288606352
6.708,-0.07033071817220926
6.71,-0.06935446156863241
6.712,-0.06841531054370567
6.714,-0.06751501135233859
6.716,-0.06665523649089222
6.718,-0.06583758225992738
6.72,-0.06506356643827681
6.722,-0.06433462607173547
6.724,-0.06365211537953884
6.726,-0.06301730378159379
6.728,-0.062431374049287544
6.73,-0.06189542058250237
6.732,-0.061410447815289294
6.734,-0.06097736875247839
6.736,-0.060597003639303496
6.738,-0.060270078765943244
6.74,-0.05999722540867813
6.742,-0.059778978909170555
6.744,-0.05961577789318489
6.746,-0.05950796362985512
6.748,-0.05945577953241751
6.75,-0.05945937080111544
6.752,-0.05951878420878962
6.7540000000000004,-0.05963396802945573
6.756,-0.05980477210997343
6.758,-0.060030948084703925
6.76,-0.060312149732851206
6.7620000000000005,-0.060647933477977305
6.764,-0.06103775902897947
6.766,-0.06148099016162017
6.768,-0.06197689563949054
6.7700000000000005,-0.0625246502731022
6.772,-0.06312333611559146
6.774,-0.06377194379334215
6.776,-0.06446937396962203
6.7780000000000005,-0.06521443893915302
6.78,-0.06600586435134448
6.782,-0.06684229105973132
6.784,-0.06772227709498609
6.7860000000000005,-0.06864429975869069
6.788,-0.06960675783488446
6.79,-0.07060797391624737
6.792,-0.0716461968415866
6.7940000000000005,-0.0727196042411747
6.796,-0.07382630518629091
6.798,-0.07496434293921367
6.8,-0.07613169779972499
6.8020000000000005,-0.07732629004408556
6.804,-0.07854598295228137
6.806,-0.07978858591924468
6.808,-0.0810518576455909
6.8100000000000005,-0.0823335094033544
6.812,-0.08363120837204313
6.814,-0.08494258104026606
6.816,-0.08626521666810132
6.8180000000000005,-0.08759667080524365
6.82,-0.08893446885992973
6.822,-0.09027610971356577
6.824,-0.0916190693758799
6.8260000000000005,-0.09296080467540942
6.828,-0.09429875698004733
6.83,-0.09563035594236331
6.832,-0.09695302326432746
6.8340000000000005,-0.09826417647610776
6.836,-0.09956123272351869
6.838,-0.10084161255873328
6.84,-0.10210274372886546
6.8420000000000005,-0.10334206495699304
6.844,-0.104557029710243
6.846,-0.10574510994957038
6.848,-0.10690379985586196
6.8500000000000005,-0.10803061952706478
6.852,-0.1091231186410499
6.854,-0.11017888007900518
6.856,-0.11119552350415167
6.8580000000000005,-0.11217070889071527
6.86,-0.11310213999807459
6.862,-0.11398756778516009
6.864,-0.11482479376019905
6.8660000000000005,-0.11561167326104346
6.868,-0.1163461186613754
6.87,-0.11702610249822715
6.872,-0.11764966051632807
6.8740000000000006,-0.11821489462493749
6.876,-0.11871997576292798
6.878,-0.1191631466680288
6.88,-0.11954272454625477
6.882000000000001,-0.11985710363771541
6.884,-0.12010475767511081
6.886,-0.12028424223141101
6.888,-0.12039419695334001
6.890000000000001,-0.12043334767746952
6.892,-0.12040050842587917
6.894,-0.12029458327852832
6.896,-0.12011456811963446
6.898000000000001,-0.11985955225555697
6.9,-0.11952871990185185
6.902,-0.11912135153735469
6.904,-0.11863682512333304
6.906000000000001,-0.1180746171859517
6.908,-0.11743430376047001
6.91,-0.11671556119580744
6.912,-0.11591816681829432
6.914,-0.1150419994536357
6.916,-0.11408703980631157
6.918,-0.11305337069584435
6.92,-0.11194117714955659
6.922,-0.11075074635166395
6.924,-0.10948246744873087
6.926,-0.10813683121174392
6.928,-0.1067144295552317
6.93,-0.1052159549140953
6.932,-0.10364219947899087
6.934,-0.10199405429132316
6.936,-0.10027250819908702
6.938,-0.09847864667502017
6.94,-0.09661365049870463
6.942,-0.09467879430445438
6.944,-0.09267544499700665
6.946,-0.09060506003725079
6.948,-0.08846918560038226
6.95,-0.0862694546090568
6.952,-0.08400758464432123
6.954,-0.08168537573722964
6.956,-0.0793047080442646
6.958,-0.07686753940982588
6.96,-0.07437590281919418
6.962,-0.07183190374558228
6.964,-0.06923771739498097
6.966,-0.0665955858526929
6.968,-0.06390781513555335
6.97,-0.061176772154008956
6.972,-0.058404881588323646
6.974,-0.05559462268330326
6.976,-0.0527485259660757
6.978,-0.049869169891529064
6.98,-0.04695917742015619
6.982,-0.04402121253312256
6.984,-0.04105797668945737
6.986,-0.03807220523038906
6.988,-0.035066663735873166
6.99,-0.03204414433847219
6.992,-0.029007461999753827
6.994,-0.025959450754499964
6.996,-0.02290295992799804
6.998,-0.019840850331753916
7.0,-0.016775990443005206
7.002,-0.013711252573404865
7.0040000000000004,-0.010649509032301833
7.006,-0.007593628290025682
7.008,-0.004546471146565114
7.01,-0.001510886911082419
7.0120000000000005,0.0015102904023703012
7.014,0.0045142458575542
7.016,0.0074981873518534525
7.018,0.01045934933985735
7.0200000000000005,0.013394996519485551
7.022,0.01630242747546229
7.024,0.01917897827498148
7.026,0.022022026010509715
7.0280000000000005,0.02482899228472146
7.03,0.027597346632649747
7.032,0.030324609876252632
7.034,0.033008357406630044
7.0360000000000005,0.03564622238929557
7.038,0.03823589888796782
7.04,0.04077514490250057
7.042,0.04326178531665055
7.0440000000000005,0.045693714751544476
7.046,0.04806890032083357
7.048,0.0503853842836431
7.05,0.052641286591602034
7.0520000000000005,0.054834807326355754
7.054,0.05696422902414251
7.056,0.05902791888417509
7.058,0.061024330857710835
7.0600000000000005,0.06295200761489253
7.062,0.06480958238658945
7.064,0.0665957806786779
7.066,0.06830942185633607
7.0680000000000005,0.06994942059615925
7.07,0.07151478820405477
7.072,0.07300463379709089
7.074,0.07441816534764786
7.0760000000000005,0.07575469058842522
7.078,0.07701361777705334
7.08,0.07819445631926639
7.082,0.07929681724977423
7.0840000000000005,0.0803204135701892
7.086,0.08126506044356498
7.088,0.08213067524530626
7.09,0.08291727747040242
7.0920000000000005,0.08362498849716098
7.094,0.08425403120780013
7.096,0.08480472946648909
7.098,0.08527750745558606
7.1000000000000005,0.08567288887107527
7.102,0.08599149597836256
7.104,0.08623404852981026
7.106,0.0864013625455791
7.1080000000000005,0.086494348959542
7.11,0.08651401213222795
7.112,0.08646144823293213
7.114,0.0863378434933324
7.1160000000000005,0.08614447233512097
7.118,0.08588269537433048
7.12,0.08555395730524658
7.122,0.08515978466691079
7.1240000000000006,0.08470178349544338
7.126,0.08418163686554139
7.128,0.08360110232466485
7.13,0.08296200922360364
7.132000000000001,0.0822662559472313
7.134,0.08151580704941808
7.136,0.08071269029619088
7.138,0.07985899362138066
7.140000000000001,0.07895686199910668
7.142,0.07800849423755357
7.144,0.07701613969865273
7.146,0.07598209494831873
7.148000000000001,0.07490870034205656
7.15,0.07379833655080258
7.152,0.07265342103195221
7.154,0.07147640445063322
7.156000000000001,0.07026976705631283
7.158,0.0690360150199295
7.16,0.06777767673675487
7.162,0.06649729910028357
7.164000000000001,0.06519744375245995
7.166,0.06388068331557356
7.168,0.06254959761124049
7.17,0.06120676987181111
7.172,0.05985478294965512
7.174,0.05849621552970069
7.176,0.05713363835064528
7.178,0.05576961044020919
7.18,0.05440667536982158
7.182,0.05304735753406107
7.184,0.0516941584601705
7.186,0.0503495531528837
7.188,0.04901598647981069
7.19,0.04769586960249176
7.192,0.046391576458249394
7.194,0.045105440297814825
7.196,0.043839750283693385
7.198,0.04259674815409856
7.2,0.04137862495722204
7.202,0.040187517860475475
7.204,0.039025507039274106
7.206,0.0378946126497777
7.208,0.036796791889914235
7.21,0.035733936152858914
7.212,0.03470786827704818
7.214,0.03372033989661847
7.216,0.032773028896072795
7.218,0.0318675369727765
7.22,0.03100538731077521
7.222,0.030188022369235613
7.224,0.029416801788668633
7.226,0.02869300041790777
7.228,0.02801780646466506
7.23,0.027392319772290747
7.232,0.026817550225196735
7.234,0.026294416285208132
7.236,0.025823743660939317
7.238,0.025406264112076294
7.24,0.02504261439028193
7.242,0.024733335318220737
7.244,0.024478871008024254
7.246,0.02427956822030441
7.248,0.02413567586463108
7.25,0.024047344642182264
7.252,0.02401462683107898
7.2540000000000004,0.024037476214708288
7.256,0.02411574815313662
7.258,0.024249199797513214
7.26,0.024437490447154493
7.2620000000000005,0.024680182048805756
7.264,0.02497673983736242
7.266,0.025326533117144553
7.268,0.02572883618260573
7.2700000000000005,0.026182829377168943
7.272,0.0266876002886758
7.274,0.02724214507975445
7.276,0.027845369951200964
7.2780000000000005,0.028496092736292854
7.28,0.029193044623770713
7.282,0.02993487200701958
7.284,0.0307201384568233
7.2860000000000005,0.03154732681488634
7.288,0.0324148414051251
7.29,0.03332101035959574
7.292,0.03426408805572921
7.2940000000000005,0.03524225766141148
7.296,0.036253633784273306
7.298,0.03729626522142828
7.3,0.03836813780572385
7.3020000000000005,0.039467177344458204
7.304,0.040591252646384524
7.306,0.04173817863266762
7.308,0.04290571952737296
7.3100000000000005,0.04409159212295048
7.312,0.04529346911602961
7.314,0.04650898250880849
7.316,0.0477357270711563
7.3180000000000005,0.04897126385851552
7.32,0.0502131237805757
7.322,0.051458811215648076
7.324,0.05270580766556963
7.3260000000000005,0.053951575445933014
7.328,0.055193561406395614
7.33,0.05642920067573817
7.332,0.05765592042634522
7.3340000000000005,0.05887114365275306
7.336,0.060072292958843906
7.338,0.06125679434832146
7.34,0.06242208101303262
7.3420000000000005,0.0635655971137498
7.344,0.06468480154800588
7.346,0.06577717169962863
7.348,0.06684020716459782
7.3500000000000005,0.06787143344792083
7.352,0.068868405626266
7.354,0.06982871197109436
7.356,0.07074997752714039
7.3580000000000005,0.07162986764113533
7.36,0.07246609143571489
7.362,0.0732564052235724
7.364,0.0739986158569633
7.3660000000000005,0.07469058400778827
7.368,0.07533022737355907
7.37,0.07591552380467706
7.372,0.07644451434853869
7.3740000000000006,0.07691530620612609
7.376,0.0773260755968595
7.378,0.07767507052759261
7.38,0.0779606134618064
7.382000000000001,0.07818110388518104
7.384,0.07833502076385496
7.386,0.07842092489186525
7.388,0.07843746112439927
7.390000000000001,0.0783833604936503
7.392,0.07825744220424612
7.394,0.07805861550538319
7.396,0.07778588143697493
7.398000000000001,0.07743833444729976
7.4,0.07701516387982751
7.402,0.07651565532706854
7.404,0.07593919184949657
7.406000000000001,0.07528525505778329
7.408,0.07455342605676869
7.41,0.07374338624979528
7.412,0.07285491800223301
7.414000000000001,0.07188790516321597
7.416,0.07084233344481657
7.418,0.06971829065808605
7.42,0.06851596680559047
7.422000000000001,0.06723565403027666
7.424,0.06587774642071045
7.426,0.06444273967291866
7.428,0.0629312306092965
7.43,0.061343916555211014
7.432,0.059681594574168495
7.434,0.0579451605625869
7.436,0.056135608205418595
7.438,0.054254027794088874
7.44,0.05230160490837719
7.442,0.05027961896409265
7.444,0.04818944162854631
7.446,0.0460325351060743
7.448,0.043810450295968445
7.45,0.04152482482542882
7.452,0.03917738096027634
7.454,0.03676992339636212
7.456,0.034304336934779495
7.458,0.03178258404414215
7.46,0.029206702313344466
7.462,0.026578801798403776
7.464,0.023901062267101092
7.466,0.021175730345313344
7.468,0.018405116569025604
7.47,0.015591592346216099
7.472,0.01273758683284907
7.474,0.00984558372740819
7.476,0.006918117988475643
7.478,0.003957772479970388
7.48,0.0009671745487956178
7.482,-0.0020510074602868404
7.484,-0.005094067747664507
7.486,-0.008159266654730352
7.488,-0.011243834307547523
7.49,-0.014344974303164275
7.492,-0.017459867433403973
7.494,-0.020585675440841937
7.496,-0.02371954480171507
7.498,-0.026858610530378985
7.5,-0.029999999999999364
7.502,-0.033140836774041144
7.5040000000000004,-0.03627824444317507
7.506,-0.039409350462177264
7.508,-0.042531289981432754
7.51,-0.04564120966759889
7.5120000000000005,-0.04873627150807269
7.514,-0.05181365659386877
7.516,-0.05487056887561137
7.518,-0.05790423888728116
7.5200000000000005,-0.060911927432533354
7.522,-0.06389092922832477
7.524,-0.06683857650076934
7.526,-0.06975224252810108
7.5280000000000005,-0.07262934512578302
7.53,-0.0754673500688283
7.532,-0.07826377444653036
7.534,-0.08101618994484862
7.5360000000000005,-0.08372222605184525
7.538,-0.08637957318163776
7.54,-0.0889859857124965
7.542,-0.09153928493476607
7.5440000000000005,-0.0940373619045034
7.546,-0.09647818019877852
7.548,-0.09885977856879238
7.55,-0.10118027348705455
7.5520000000000005,-0.10343786158505548
7.554,-0.10563082197799294
7.556,-0.10775751847330982
7.558,-0.10981640165991217
7.5600000000000005,-0.11180601087516001
7.562,-0.11372497604685872
7.564,-0.11557201940768343
7.566,-0.11734595707961994
7.5680000000000005,-0.11904570052622643
7.57,-0.12067025787066772
7.572,-0.12221873507771014
7.574,-0.12369033699800747
7.5760000000000005,-0.12508436827325217
7.578,-0.12640023410091952
7.58,-0.12763744085757983
7.582,-0.12879559657990222
7.5840000000000005,-0.12987441130271768
7.586,-0.1308736972536868
7.588,-0.1317933689043429
7.59,-0.13263344287745132
7.5920000000000005,-0.13339403771087177
7.594,-0.1340753734782789
7.596,-0.1346777712673224
7.598,-0.13520165251599395
7.6000000000000005,-0.13564753820818215
7.602,-0.13601604792959127
7.604,-0.13630789878539204
7.606,-0.13652390418118304
7.6080000000000005,-0.13666497246902037
7.61,-0.1367321054604743
7.612,-0.13672639680885465
7.614,-0.13664903026294037
7.6160000000000005,-0.13650127779471355
7.618,-0.1362844976038071
7.62,-0.1360001320015101
7.622,-0.13564970517738695
7.6240000000000006,-0.13523482085170047
7.626,-0.13475715981701145
7.628,-0.13421847737246895
7.63,-0.1336206006544748
7.632000000000001,-0.13296542586753587
7.634,-0.1322549154192752
7.636,-0.1314910949636835
7.638,-0.13067605035686763
7.640000000000001,-0.12981192452961418
7.642,-0.12890091428127304
7.644,-0.12794526699951217
7.646,-0.1269472773106531
7.648000000000001,-0.12590928366535986
7.65,-0.12483366486456303
7.652,-0.12372283653057238
7.654,-0.12257924752842965
7.656000000000001,-0.12140537634259753
7.658,-0.12020372741416789
7.66,-0.11897682744379949
7.662,-0.11772722166569076
7.664000000000001,-0.1164574700978628
7.666,-0.11517014377414944
7.668,-0.11386782096322617
7.67,-0.1125530833801041
7.672000000000001,-0.11122851239547246
7.674,-0.10989668524831188
7.676,-0.10856017126715618
7.678,-0.1072215281054208
7.68,-0.10588329799614228
7.682,-0.10454800403148669
7.684,-0.10321814647230543
7.686,-0.10189619909304048
7.688,-0.10058460556714252
7.69,-0.09928577589819282
7.692,-0.09800208290180046
7.694,-0.09673585874327861
7.696,-0.09548939153605891
7.698,-0.0942649220056717
7.7,-0.09306464022406036
7.702,-0.09189068241886722
7.704,-0.090745127862257
7.706,-0.08962999584370365
7.708,-0.08854724273103987
7.71,-0.08749875912398918
7.712,-0.08648636710419974
7.714,-0.08551181758572696
7.716,-0.08457678776972781
7.718,-0.08368287870698732
7.72,-0.08283161297176549
7.722,-0.08202443245026447
7.724,-0.08126269624687771
7.726,-0.0805476787111914
7.728,-0.0798805675885626
7.73,-0.07926246229690179
7.732,-0.07869437233210907
7.734,-0.07817721580445107
7.736,-0.07771181810794481
7.738,-0.07729891072465934
7.74,-0.07693913016563095
7.742,-0.07663301704989903
7.744,-0.07638101532298044
7.746,-0.07618347161589033
7.748,-0.07604063474562531
7.75,-0.07595265535781776
7.752,-0.07591958571207325
7.7540000000000004,-0.07594137961029415
7.756,-0.0760178924680929
7.758,-0.07614888152919139
7.76,-0.07633400622250339
7.7620000000000005,-0.07657282866138876
7.764,-0.07686481428436788
7.766,-0.07720933263638745
7.768,-0.07760565828951851
7.7700000000000005,-0.07805297190177976
7.772,-0.07855036141257365
7.774,-0.0790968233730378
7.776,-0.07969126440940974
7.7780000000000005,-0.08033250281732165
7.78,-0.08101927028476169
7.782,-0.08175021374123033
7.784,-0.08252389733047792
7.7860000000000005,-0.08333880450399442
7.788,-0.08419334023227626
7.79,-0.08508583333072593
7.792,-0.08601453889685576
7.7940000000000005,-0.08697764085533734
7.796,-0.08797325460725718
7.798,-0.08899942977981955
7.8,-0.09005415307256165
7.8020000000000005,-0.0911353511960308
7.804,-0.09224089389875119
7.806,-0.09336859707813133
7.808,-0.09451622597092395
7.8100000000000005,-0.09568149841865117
7.812,-0.09686208820336084
7.814,-0.09805562844896465
7.816,-0.09925971508329193
7.8180000000000005,-0.10047191035594083
7.82,-0.10168974640689775
7.822,-0.10291072888085959
7.824,-0.10413234058208048
7.8260000000000005,-0.10535204516454377
7.828,-0.10656729085221509
7.83,-0.10777551418403047
7.832,-0.10897414377833017
7.8340000000000005,-0.11016060411132864
7.836,-0.1113323193042482
7.838,-0.11248671691372866
7.84,-0.11362123172007865
7.8420000000000005,-0.11473330950798744
7.844,-0.11582041083428977
7.846,-0.11688001477742431
7.848,-0.11790962266321721
7.8500000000000005,-0.11890676176168133
7.852,-0.11986898894957071
7.854,-0.12079389433342885
7.856,-0.12167910482799905
7.8580000000000005,-0.12252228768485397
7.86,-0.12332115396622284
7.862,-0.12407346195905951
7.864,-0.12477702052445727
7.8660000000000005,-0.12542969237764556
7.868,-0.1260293972938638
7.87,-0.12657411523554749
7.872,-0.127061889396342
7.8740000000000006,-0.12749082915759535
7.876,-0.12785911295311733
7.878,-0.12816499103806903
7.88,-0.1284067881580702
7.882000000000001,-0.12858290611465792
7.884,-0.12869182622344807
7.886,-0.12873211166147253
7.888,-0.12870240970032182
7.890000000000001,-0.12860145382189656
7.892,-0.12842806571372442
7.894,-0.12818115714098754
7.896,-0.12785973169255715
7.898000000000001,-0.12746288639852832
7.9,-0.12698981321693467
7.902,-0.1264398003874758
7.904,-0.1258122336503292
7.906000000000001,-0.12510659732826201
7.908,-0.12432247527048024
7.91,-0.12345955165684473
7.912,-0.12251761166127034
7.914000000000001,-0.12149654197333781
7.916,-0.12039633117734444
7.918,-0.11921706998821349
7.92,-0.11795895134390333
7.922000000000001,-0.11662227035414349
7.924,-0.11520742410553789
7.926,-0.11371491132327903
7.928,-0.11214533188991523
7.930000000000001,-0.11049938622182245
7.932,-0.10877787450423472
7.934,-0.10698169578587027
7.936,-0.10511184693442446
7.938,-0.10316942145435842
7.94,-0.10115560816864547
7.942,-0.09907168976629355
7.944,-0.09691904121768058
7.946,-0.09469912805992432
7.948,-0.09241350455466767
7.95,-0.09006381172088228
7.952,-0.08765177524542661
7.954,-0.08517920327430804
7.956,-0.08264798408773774
7.958,-0.08006008366225731
7.96,-0.077417543123339
7.962,-0.0747224760920723
7.964,-0.07197706592965115
7.966,-0.06918356288353297
7.968,-0.06634428113930438
7.97,-0.06346159578239574
7.972,-0.060537939673909746
7.974,-0.057575800244999246
7.976,-0.05457771621426319
7.978,-0.0515462742328326
7.98,-0.048484105461843174
7.982,-0.045393882087138106
7.984,-0.042278313776093174
7.986,-0.039140144081583984
7.988,-0.03598214679815454
7.99,-0.03280712227551676
7.992,-0.029617893694593618
7.994,-0.026417303311362158
7.996,-0.023208208673762915
7.998,-0.019993478817068172
8.0,-0.016775990443005647
8.002,-0.013558624088089307
8.004,-0.010344260286538488
8.006,-0.007135775733164361
8.008000000000001,-0.003936039451722632
8.01,-0.0007479089740373215
8.012,0.0024257734646508967
8.014,0.00558218470874889
8.016,0.00871852443848977
8.018,0.011832018893872821
8.02,0.014919924561171043
8.022,0.01797953181676501
8.024000000000001,0.021008168523170216
8.026,0.02400320357220491
8.028,0.0269620503703081
8.03,0.02988217026103504
8.032,0.0327610758800041
8.034,0.035596334437470505
8.036,0.03838557092396504
8.038,0.04112647123445823
8.040000000000001,0.04381678520664649
8.042,0.04645432956908135
8.044,0.04903699079501804
8.046,0.05156272785790969
8.048,0.05402957488474788
8.05,0.05643564370342778
8.052,0.05877912628064059
8.054,0.06105829704681554
8.056000000000001,0.06327151510485068
8.058,0.06541722631955023
8.06,0.06749396528483308
8.062,0.06950035716592717
8.064,0.0714351194140155
8.066,0.07329706335088355
8.068,0.0750850956214022
8.07,0.07679821951178264
8.072000000000001,0.07843553613177519
8.074,0.07999624545918275
8.076,0.08147964724523234
8.078,0.08288514177953273
8.08,0.08421223051361312
8.082,0.08546051654214397
8.084,0.08662970494122141
8.086,0.08771960296326761
8.088000000000001,0.08873012008828285
8.09,0.08966126793143973
8.092,0.0905131600071711
8.094,0.09128601135011076
8.096,0.09198013799348537
8.098,0.0925959563057075
8.1,0.09313398218615775
8.102,0.09359483012133422
8.104000000000001,0.09397921210273269
8.106,0.09428793640803801
8.108,0.09452190624738745
8.11,0.09468211827665528
8.112,0.09476966097991352
8.114,0.09478571292339484
8.116,0.09473154088345817
8.118,0.09460849785127348
8.120000000000001,0.09441802091706149
8.122,0.09416162903695148
8.124,0.0938409206856322
8.126,0.09345757139819932
8.128,0.09301333120467821
8.13,0.09251002196092395
8.132,0.09194953457971985
8.134,0.09133382616601966
8.136000000000001,0.09066491706044846
8.138,0.0899448877952807
8.14,0.08917587596725442
8.142,0.0883600730316938
8.144,0.08749972102250078
8.146,0.0865971092027422
8.148,0.08565457065057763
8.15,0.08467447878541988
8.152000000000001,0.08365924383930587
8.154,0.08261130927848646
8.156,0.08153314818036039
8.158,0.08042725957092427
8.16,0.07929616472796738
8.162,0.07814240345528006
8.164,0.07696853033318984
8.166,0.07577711095079369
8.168000000000001,0.07457071812524292
8.17,0.07335192811347896
8.172,0.07212331682182113
8.174,0.0708874560188355
8.176,0.06964690955684517
8.178,0.0684042296075027
8.18,0.06716195291678893
8.182,0.06592259708475756
8.184000000000001,0.06468865687536077
8.186,0.06346260056158297
8.188,0.062246866311128066
8.19,0.06104385861778895
8.192,0.059855944783583075
8.194,0.05868545145670088
8.196,0.057534661230162605
8.198,0.05640580930604448
8.2,0.055301080230057885
8.202,0.05422260470108081
8.204,0.0531724564602401
8.206,0.052152649263940726
8.208,0.051165133945182885
8.21,0.050211795567337944
8.212,0.04929445067443996
8.214,0.048414844641922264
8.216,0.047574649131565304
8.218,0.0467754596542755
8.22,0.04601879324419182
8.222,0.04530608624740454
8.224,0.044638692228456345
8.226,0.044017879997603225
8.228,0.04344483176164697
8.23,0.04292064140096808
8.232,0.04244631287522483
8.234,0.04202275875997563
8.236,0.041650798916327496
8.238,0.041331159295488064
8.24,0.0410644708799341
8.242,0.04085126876270806
8.244,0.040691991366143695
8.246,0.04058697980114291
8.248,0.040536477367914686
8.25,0.040540629198884556
8.252,0.040599482044286754
8.254,0.0407129842007434
8.256,0.04088098558293221
8.258000000000001,0.04110323793824153
8.26,0.04137939520410726
8.262,0.04170901400752186
8.264,0.042091554306003344
8.266,0.04252638016911719
8.268,0.04301276069942591
8.27,0.04354987109156819
8.272,0.044136793827950806
8.274000000000001,0.044772520009352244
8.276,0.04545595081853945
8.278,0.04618589911482228
8.28,0.0469610911572591
8.282,0.047780168454079064
8.284,0.048641689735659535
8.286,0.049544133048273944
8.288,0.05048589796561913
8.290000000000001,0.05146530791495326
8.292,0.05248061261455974
8.294,0.053529990619051095
8.296,0.054611551968869736
8.298,0.055723340940246384
8.3,0.05686333889166087
8.302,0.05802946720278179
8.304,0.059219590301669
8.306000000000001,0.060431518775942196
8.308,0.06166301256348554
8.31,0.06291178421812284
8.312,0.06417550224562209
8.314,0.06545179450528937
8.316,0.06673825167225847
8.318,0.06803243075559744
8.32,0.0693318586671799
8.322000000000001,0.07063403583624699
8.324,0.07193643986449916
8.326,0.07323652921652714
8.328,0.07453174694028969
8.33,0.07581952441237608
8.332,0.07709728510265505
8.334,0.07836244835300389
8.336,0.07961243316469532
8.338000000000001,0.08084466198902998
8.34,0.08205656451584085
8.342,0.08324558145445551
8.344,0.0844091683016888
8.346,0.0855447990915513
8.348,0.08664997012126767
8.35,0.08772220364832829
8.352,0.08875905155326758
8.354000000000001,0.08975809896296466
8.356,0.09071696782928045
8.358,0.09163332045793886
8.36,0.09250486298257928
8.362,0.09332934877907038
8.364,0.09410458181515453
8.366,0.09482841993068246
8.368,0.09549877804372406
8.370000000000001,0.09611363127798843
8.372,0.09667101800706507
8.374,0.097169042811161
8.376,0.09760587934207758
8.378,0.09797977309235018
8.38,0.09828904406456787
8.382,0.09853208933707197
8.384,0.0987073855223489
8.386000000000001,0.098813491114588
8.388,0.09884904872305904
8.39,0.09881278718808882
8.392,0.09870352357660538
8.394,0.09852016505438764
8.396,0.09826171063232866
8.398,0.09792725278419558
8.4,0.0975159789335618
8.402000000000001,0.09702717280776295
8.404,0.09646021565692856
8.406,0.09581458733631232
8.408,0.09508986725036697
8.41,0.09428573515717216
8.412,0.09340197183205899
8.414,0.092438459589435
8.416,0.09139518266205195
8.418000000000001,0.0902722274371326
8.42,0.08906978254899604
8.422,0.08778813882800111
8.424,0.08642768910587299
8.426,0.0849889278776172
8.428,0.08347245082051051
8.43,0.08187895417077676
8.432,0.08020923395881996
8.434000000000001,0.07846418510407407
8.436,0.07664480037069435
8.438,0.07475216918554882
8.44,0.07278747632018058
8.442,0.07075200043852174
8.444,0.0686471125124463
8.446,0.06647427410733284
8.448,0.06423503554005205
8.45,0.06193103391197875
8.452,0.059563991019734384
8.454,0.057135711146665116
8.456,0.05464807873808737
8.458,0.05210305596359511
8.46,0.04950268016988156
8.462,0.04684906122760835
8.464,0.044144378776074945
8.466,0.041390879369589295
8.468,0.03859087352950825
8.47,0.035746732706151994
8.472,0.03286088615482208
8.474,0.029935817730348434
8.476,0.026974062604698337
8.478,0.023978203912236186
8.48,0.020950869327367536
8.482,0.017894727579447413
8.484,0.014812484909768987
8.486,0.011706881475724048
8.488,0.008580687707144066
8.49,0.005436700619973697
8.492,0.002277740092508502
8.494,-0.0008933548906077393
8.496,-0.0040737300212846245
8.498,-0.007260519472446754
8.5,-0.010450849718746985
8.502,-0.01364184336804321
8.504,-0.01683062299833343
8.506,-0.02001431499468556
8.508000000000001,-0.023190053380723972
8.51,-0.0263549836393352
8.512,-0.02950626651715973
8.514,-0.03264108180748997
8.516,-0.0357566321062863
8.518,-0.03885014653596077
8.52,-0.04191888443171399
8.522,-0.04496013898522744
8.524000000000001,-0.047971240840516974
8.526,-0.05094956163695647
8.528,-0.05389251749443566
8.53,-0.056797572435707995
