Time (s),ECG (mV)
0.0,0.0
0.002,0.003379873148154365
0.004,0.00675686378131469
0.006,0.010128093221604049
0.008,0.013490690459966868
0.01,0.016841795977055065
0.012,0.020178565547906327
0.014,0.023498174025047596
0.016,0.026797819094687682
0.018000000000000002,0.03007472500070094
0.02,0.033326146231149864
0.022,0.036549371162147425
0.024,0.03974172565392077
0.026000000000000002,0.042900576594005674
0.028,0.04602333538257603
0.03,0.04910746135499531
0.032,0.052150465136765425
0.034,0.055149911926144865
0.036000000000000004,0.058103424699810696
0.038,0.06100868733704772
0.04,0.06386344765806479
0.042,0.06666552037215874
0.044,0.06941278993157628
0.046,0.07210321328705599
0.048,0.074734822541174
0.05,0.07730572749576088
0.052000000000000005,0.07981411808980801
0.054,0.08225826672443737
0.056,0.08463653047166861
0.058,0.08694735316388284
0.06,0.08918926736105094
0.062,0.09136089619296937
0.064,0.09346095507392183
0.066,0.0954882532873681
0.068,0.09744169543844489
0.07,0.09932028277225127
0.07200000000000001,0.10112311435608218
0.074,0.10284938812396617
0.076,0.10449840178205957
0.078,0.10606955357364602
0.08,0.10756234290269046
0.082,0.10897637081509663
0.084,0.11031134033702007
0.08600000000000001,0.11156705666979017
0.088,0.11274342724119966
0.09,0.11384046161312358
0.092,0.11485827124563198
0.094,0.11579706911796786
0.096,0.11665716920696015
0.098,0.11743898582364906
0.1,0.11814303280909783
0.10200000000000001,0.11876992259056793
0.10400000000000001,0.11932036509943089
0.106,0.11979516655238735
0.108,0.12019522809775748
0.11,0.12052154432879778
0.112,0.12077520166618931
0.114,0.12095737661202631
0.116,0.12106933387781788
0.11800000000000001,0.12111242438919342
0.12,0.12108808317017751
0.122,0.12099782711007055
0.124,0.12084325261613872
0.126,0.12062603315547746
0.128,0.12034791668957137
0.13,0.12001072300522414
0.132,0.11961634094567995
0.134,0.11916672554589909
0.136,0.11866389507608575
0.138,0.1181099279976972
0.14,0.11750695983628638
0.14200000000000002,0.11685717997564815
0.14400000000000002,0.11616282837785134
0.146,0.11542619223384297
0.148,0.1146496025494097
0.15,0.1138354306713731
0.152,0.11298608475897946
0.154,0.11210400620552305
0.156,0.11119166601531102
0.158,0.11025156114114239
0.16,0.10928621078752818
0.162,0.10829815268492908
0.164,0.10728993934032675
0.166,0.10626413426947867
0.168,0.10522330821623242
0.17,0.10417003536429202
0.17200000000000001,0.10310688954684066
0.17400000000000002,0.10203644045942603
0.176,0.10096124988150888
0.178,0.0998838679120644
0.18,0.09880682922460335
0.182,0.09773264934695372
0.184,0.0966638209711072
0.186,0.0956028102983915
0.188,0.09455205342517913
0.19,0.0935139527742854
0.192,0.09249087357714265
0.194,0.09148514041176517
0.196,0.09049903380143948
0.198,0.08953478687898861
0.2,0.08859458212136385
0.202,0.08768054815921882
0.20400000000000001,0.08679475666601201
0.20600000000000002,0.08593921933107214
0.20800000000000002,0.08511588492093901
0.21,0.08432663643316848
0.212,0.08357328834665685
0.214,0.08285758397240332
0.216,0.08218119290848515
0.218,0.08154570860287233
0.22,0.08095264602755431
0.222,0.08040343946729268
0.224,0.07989944042615096
0.226,0.07944191565478396
0.228,0.0790320453012972
0.23,0.07867092118831194
0.232,0.07835954521868949
0.234,0.07809882791218702
0.23600000000000002,0.07788958707512973
0.23800000000000002,0.0777325466049944
0.24,0.07762833543160787
0.242,0.07757748659646893
0.244,0.07758043647150531
0.246,0.07763752411837894
0.248,0.07774899078925258
0.25,0.07791497956972882
0.252,0.0781355351644707
0.254,0.07841060382580947
0.256,0.07874003342544109
0.258,0.07912357366910994
0.26,0.07956087645397411
0.262,0.08005149636814297
0.264,0.0805948913316761
0.266,0.08119042337813037
0.268,0.0818373595755422
0.27,0.08253487308553308
0.272,0.08328204435902974
0.274,0.084077862466896
0.276,0.08492122656358053
0.278,0.0858109474816959
0.28,0.0867457494552574
0.28200000000000003,0.08772427196912652
0.28400000000000003,0.08874507173202474
0.28600000000000003,0.08980662477030692
0.28800000000000003,0.09090732863951118
0.29,0.09204550475053463
0.292,0.09321940080712149
0.294,0.09442719335118954
0.296,0.09566699041236998
0.298,0.09693683425798463
0.3,0.09823470423954232
0.302,0.0995585197316992
0.304,0.1009061431594945
0.306,0.10227538310954837
0.308,0.10366399752078823
0.31,0.10506969695015715
0.312,0.10649014790864916
0.314,0.10792297626291839
0.316,0.10936577069761316
0.318,0.11081608623350062
0.32,0.11227144779636686
0.322,0.11372935383160629
0.324,0.11518727995934673
0.326,0.11664268266490035
0.328,0.11809300301927857
0.33,0.11953567042446753
0.332,0.12096810637812255
0.334,0.12238772825231493
0.336,0.12379195308094203
0.338,0.1251782013503989
0.34,0.126543900788106
0.342,0.12788649014348896
0.34400000000000003,0.1292034229560164
0.34600000000000003,0.13049217130492155
0.34800000000000003,0.13175022953525692
0.35000000000000003,0.1329751179549653
0.352,0.13416438649769233
0.354,0.13531561834611183
0.356,0.1364264335105927
0.358,0.13749449235809835
0.36,0.13851749908628053
0.362,0.13949320513780586
0.364,0.1404194125500393
0.366,0.14129397723529952
0.368,0.1421148121869984
0.37,0.14287989060708461
0.372,0.1435872489503199
0.374,0.14423498988103506
0.376,0.14482128513813852
0.378,0.14534437830427835
0.38,0.14580258747519423
0.382,0.1461943078254398
0.384,0.1465180140668
0.386,0.1467722627958816
0.388,0.14695569472751194
0.39,0.1470670368107433
0.392,0.1471051042244252
0.394,0.1470688022494805
0.396,0.146957128015193
0.398,0.14676917211699547
0.4,0.1465041201034275
0.402,0.1461612538301195
0.404,0.14573995267884718
0.406,0.14523969463989225
0.40800000000000003,0.144660057256139
0.41000000000000003,0.14400071842753334
0.41200000000000003,0.14326145707472812
0.41400000000000003,0.14244215366093863
0.41600000000000004,0.14154279057123373
0.418,0.14056345234869017
0.42,0.1395043257870404
0.422,0.13836569987964886
0.424,0.13714796562485465
0.426,0.13585161568792245
0.428,0.13447724392004798
0.43,0.13302554473506598
0.432,0.13149731234471182
0.434,0.12989343985348734
0.436,0.12821491821438244
0.438,0.1264628350468997
0.44,0.12463837331902584
0.442,0.1227428098949874
0.444,0.12077751395081715
0.446,0.11874394525994626
0.448,0.11664365235122194
0.45,0.11447827054193098
0.452,0.11224951984858732
0.454,0.10995920277841478
0.456,0.10760920200462648
0.458,0.1052014779287661
0.46,0.1027380661335377
0.462,0.10022107472970648
0.464,0.09765268160080046
0.466,0.09503513154949278
0.468,0.09237073334967993
0.47000000000000003,0.08966185670840668
0.47200000000000003,0.08691092914191731
0.47400000000000003,0.08412043277023229
0.47600000000000003,0.08129290103476822
0.47800000000000004,0.07843091534362569
0.48,0.07553710164927321
0.482,0.07261412696345206
0.484,0.06966469581421525
0.486,0.06669154665009544
0.488,0.06369744819647395
0.49,0.06068519576928691
0.492,0.05765760755127053
0.494,0.05461752083599566
0.496,0.05156778824498972
0.498,0.0485112739232832
0.5,0.045450849718747396
0.502,0.04238939135061161
0.504,0.03932977457256713
0.506,0.036274871335870124
0.508,0.033227545957854876
0.51,0.030190651301265237
0.512,0.027167024969792095
0.514,0.024159485525183856
0.516,0.021170828731267
0.518,0.01820382383017463
0.52,0.015261209856033674
0.522,0.012345691991311827
0.524,0.009459937970961951
0.526,0.006606574539433309
0.528,0.003788183965547526
0.53,0.0010073006201509506
0.532,-0.001733592378632503
0.534,-0.0044320664478182704
0.536,-0.007085750745023576
0.538,-0.009692335292458831
0.54,-0.012249574015046973
0.542,-0.014755287688392162
0.544,-0.01720736679244813
0.546,-0.01960377426686744
0.548,-0.02194254816415623
0.55,-0.02422180419690178
0.552,-0.026439738175490557
0.554,-0.02859462833289151
0.556,-0.03068483753323801
0.558,-0.03270881536110774
0.56,-0.03466510008856902
0.562,-0.03655232051723569
0.5640000000000001,-0.03836919769274967
0.5660000000000001,-0.04011454648929204
0.5680000000000001,-0.04178727706190744
0.5700000000000001,-0.04338639616461501
0.5720000000000001,-0.044911008332468534
0.5740000000000001,-0.046360316925922546
0.5760000000000001,-0.047733625036056215
0.578,-0.04903033624940424
0.58,-0.05024995527134404
0.582,-0.05139208840718731
0.584,-0.052456443900329
0.586,-0.053442832127007234
0.588,-0.05435116564743183
0.59,-0.05518145911324359
0.592,-0.05593382903146991
0.594,-0.05660849338534568
0.596,-0.057205771112572745
0.598,-0.05772608144179144
0.6,-0.05816994308824121
0.602,-0.05853797330978608
0.604,-0.058830886824678366
0.606,-0.059049494592631015
0.608,-0.05919470246096316
0.61,-0.05926750967777362
0.612,-0.059269007274287196
0.614,-0.0592003763187038
0.616,-0.0590628860440611
0.618,-0.05885789185280349
0.62,-0.058586833200921895
0.622,-0.05825123136470073
0.624,-0.05785268709327612
0.626,-0.05739287815036955
0.628,-0.05687355674871862
0.63,-0.056296546880880885
0.632,-0.055663741550229615
0.634,-0.05497709990610598
0.636,-0.054238644287225614
0.638,-0.053450457177566996
0.64,-0.052614678079095964
0.642,-0.05173350030579562
0.644,-0.05080916770358272
0.646,-0.04984397130079908
0.648,-0.04884024589406151
0.65,-0.047800366574346845
0.652,-0.04672674519827387
0.654,-0.04562182680962028
0.656,-0.044488086016182586
0.658,-0.043328023327152146
0.66,-0.04214416145623468
0.662,-0.040939041595787665
0.664,-0.03971521966729402
0.666,-0.03847526255352168
0.668,-0.03722174431774255
0.67,-0.03595724241540693
0.672,-0.03468433390367569
0.674,-0.03340559165421587
0.676,-0.032123580574662615
0.678,-0.030840853844134954
0.68,-0.02955994916817291
0.682,-0.028283385058437385
0.684,-0.027013657142476822
0.686,-0.02575323450882034
0.6880000000000001,-0.024504556092610312
0.6900000000000001,-0.023270027106925873
0.6920000000000001,-0.022052015524883253
0.6940000000000001,-0.02085284861752983
0.6960000000000001,-0.019674809552465266
0.6980000000000001,-0.018520134058037263
0.7000000000000001,-0.01739100715786789
0.7020000000000001,-0.016289559980363657
0.704,-0.015217866647755252
0.706,-0.01417794124910235
0.708,-0.013171734901576294
0.71,-0.012201132904207466
0.712,-0.01126795198815483
0.714,-0.01037393766741505
0.716,-0.009520761693745935
0.718,-0.008710019619431419
0.72,-0.007943228471360503
0.722,-0.007221824539733624
0.724,-0.0065471612845481725
0.726,-0.005920507362845464
0.728,-0.005343044779529363
0.73,-0.004815867164392286
0.732,-0.00433997817780285
0.734,-0.003916290047326094
0.736,-0.0035456222373622497
0.738,-0.0032287002536988928
0.74,-0.002966154584679439
0.742,-0.0027585197804970915
0.744,-0.0026062336719257957
0.746,-0.002509636729601042
0.748,-0.002468971564763993
0.75,-0.0024843825721798905
0.752,-0.0025559157157397823
0.754,-0.0026835184570511185
0.756,-0.0028670398271192256
0.758,-0.0031062306410175496
0.76,-0.0034007438552413026
0.762,-0.003750135067235299
0.764,-0.0041538631563851
0.766,-0.004611291065557899
0.768,-0.005121686722080399
0.77,-0.00568422409684214
0.772,-0.006297984400014785
0.774,-0.006961957411685201
0.776,-0.00767504294550642
0.778,-0.008436052443281411
0.78,-0.00924371069820834
0.782,-0.010096657704332896
0.784,-0.010993450629572264
0.786,-0.011932565909500342
0.788,-0.01291240145891195
0.79,-0.013931278998014253
0.792,-0.014987446489931906
0.794,-0.016079080686053772
0.796,-0.017204289775593348
0.798,-0.01836111613558893
0.8,-0.019547539177425327
0.802,-0.020761478285820492
0.804,-0.02200079584608935
0.806,-0.023263300355372645
0.808,-0.024546749613394935
0.81,-0.02584885398820642
0.812,-0.027167279752254848
0.8140000000000001,-0.028499652484031135
0.8160000000000001,-0.029843560530443475
0.8180000000000001,-0.031196558524982557
0.8200000000000001,-0.032556170956664576
0.8220000000000001,-0.03391989578466553
0.8240000000000001,-0.03528520809349257
0.8260000000000001,-0.03664956378348279
0.8280000000000001,-0.038010403291368886
0.8300000000000001,-0.03936515533560586
0.8320000000000001,-0.04071124068111895
0.834,-0.04204607591810634
0.836,-0.043367077249505885
0.838,-0.044671664281725955
0.84,-0.04595726381323325
0.842,-0.047221313615595714
0.844,-0.048461266201584335
0.846,-0.04967459257496036
0.848,-0.05085878595659807
0.85,-0.0520113654816253
0.852,-0.05312987986230711
0.854,-0.05421191101144379
0.856,-0.05525507762111295
0.858,-0.056257038691645736
0.86,-0.05721549700579773
0.862,-0.05812820254315641
0.864,-0.05899295582990649
0.866,-0.05980761121916756
0.868,-0.06057008009721973
0.87,-0.06127833401103421
0.872,-0.061930407712637095
0.874,-0.06252440211595661
0.876,-0.063058487161924
0.878,-0.06353090458772773
0.88,-0.06393997059626241
0.882,-0.06428407842194797
0.884,-0.06456170078924524
0.886,-0.06477139226034731
0.888,-0.06491179146868103
0.89,-0.06498162323501436
0.892,-0.06497970056313469
0.894,-0.06490492651223265
0.896,-0.06475629594329763
0.898,-0.06453289713701707
0.9,-0.0642339132808466
0.902,-0.06385862382310768
0.904,-0.06340640569215769
0.906,-0.06287673437886787
0.908,-0.06226918488083873
0.91,-0.06158343250697963
0.912,-0.06081925354127622
0.914,-0.05997652576476955
0.916,-0.05905522883497254
0.918,-0.05805544452215153
0.92,-0.05697735680210259
0.922,-0.055821251805257904
0.924,-0.05458751762216024
0.926,-0.05327664396554735
0.928,-0.05188922168949239
0.93,-0.05042594216624845
0.932,-0.048887596521648397
0.934,-0.04727507473011029
0.936,-0.04558936457050032
0.9380000000000001,-0.04383155044430029
0.9400000000000001,-0.04200281205772365
0.9420000000000001,-0.040104422969616964
0.9440000000000001,-0.03813774900717353
0.9460000000000001,-0.036104246551675115
0.9480000000000001,-0.03400546069666007
0.9500000000000001,-0.03184302328109862
0.9520000000000001,-0.029618650800334254
0.9540000000000001,-0.027334142197721952
0.9560000000000001,-0.02499137654006329
0.9580000000000001,-0.022592310580106884
0.96,-0.020138976209537703
0.962,-0.017633477806037783
0.964,-0.015077989478151841
0.966,-0.01247475221183333
0.968,-0.009826070922688012
0.97,-0.0071343114180656385
0.972,-0.004401897273280161
0.974,-0.0016313066263564553
0.976,0.0011749311041795475
0.978,0.004014238573838799
0.98,0.006883993934311553
0.982,0.00978153431838735
0.984,0.012704159382738285
0.986,0.01564913490357271
0.988,0.018613696420087526
0.99,0.02159505292057891
0.992,0.02459039056601548
0.994,0.0275968764458206
0.996,0.030611662360563147
0.998,0.033631888626225195
1.0,0.036654687894677206
1.002,0.039677188984969594
1.004,0.04269652072003877
1.006,0.045709815763413125
1.008,0.04871421445050443
1.01,0.05170686860908274
1.012,0.05468494536354372
1.014,0.057645630917598945
1.016,0.06058613431005748
1.018,0.06350369113839852
1.02,0.06639556724488113
1.022,0.06925906235999571
1.024,0.07209151369811663
1.026,0.07489029950028432
1.028,0.07765284251912405
1.03,0.08037661344098691
1.032,0.08305913424048642
1.034,0.08569798146270659
1.036,0.0882907894284537
1.038,0.09083525335803419
1.04,0.0933291324091611
1.042,0.09577025262470865
1.044,0.09815650978616328
1.046,0.10048587216875689
1.048,0.1027563831944034
1.05,0.10496616397870642
1.052,0.10711341576845693
1.054,0.1091964222661953
1.056,0.11121355183856989
1.058,0.11316325960539333
1.06,0.11504408940646425
1.062,0.11685467564339527
1.064,0.11859374499386886
1.066,0.12026011799592017
1.068,0.12185271050003206
1.07,0.12337053498701539
1.072,0.12481270174983804
1.074,0.1261784199377583
1.076,0.12746699846131537
1.078,0.12867784675692573
1.08,0.12981047541003435
1.082,0.13086449663597027
1.084,0.13183962461785764
1.086,0.1327356757011372
1.088,0.13355256844445512
1.09,0.1342903235268818
1.092,0.13494906351162625
1.094,0.13552901246661428
1.096,0.13603049544250462
1.098,0.13645393780891624
1.1,0.13679986444984407
1.102,0.13706889881943757
1.104,0.13726176185951805
1.106,0.13737927078040305
1.108,0.13742233770680262
1.11,0.13739196819074365
1.112,0.1372892595936656
1.114,0.13711539934001749
1.116,0.13687166304486942
1.118,0.13655941251822784
1.12,0.1361800936489212
1.122,0.1357352341710928
1.124,0.13522644131650338
1.1260000000000001,0.1346553993560081
1.1280000000000001,0.13402386703373037
1.1300000000000001,0.13333367489760795
1.1320000000000001,0.1325867225301303
1.1340000000000001,0.1317849756832306
1.1360000000000001,0.130930463321433
1.1380000000000001,0.13002527457747998
1.1400000000000001,0.1290715556247947
1.1420000000000001,0.12807150647124943
1.1440000000000001,0.12702737767881875
1.1460000000000001,0.12594146701380654
1.1480000000000001,0.1248161160324325
1.1500000000000001,0.12365370660665198
1.1520000000000001,0.12245665739517145
1.154,0.12122742026470028
1.156,0.11996847666654231
1.158,0.11868233397370588
1.16,0.11737152178375379
1.162,0.1160385881926721
1.164,0.11468609604507521
1.166,0.11331661916609437
1.168,0.11193273858032633
1.17,0.11053703872323734
1.172,0.10913210365042258
1.174,0.10772051325012977
1.176,0.10630483946444894
1.178,0.10488764252455418
1.18,0.10347146720536683
1.182,0.10205883910498198
1.184,0.10065226095415923
1.186,0.09925420896114087
1.188,0.09786712919700931
1.19,0.09649343402673338
1.192,0.0951354985909923
1.194,0.09379565734379323
1.196,0.09247620065081405
1.198,0.09117937145332128
1.2,0.08990736200241871
1.202,0.08866231066827787
1.204,0.0874462988288988
1.206,0.08626134784283618
1.208,0.08510941611020095
1.21,0.08399239622612797
1.212,0.08291211223076524
1.214,0.08187031695970187
1.216,0.08086868949861005
1.218,0.07990883274572913
1.22,0.07899227108566219
1.222,0.07812044817780049
1.224,0.07729472486252684
1.226,0.07651637718817961
1.228,0.07578659456158843
1.23,0.07510647802481756
1.232,0.07447703866056961
1.234,0.07389919612852242
1.236,0.07337377733468409
1.238,0.07290151523566113
1.24,0.07248304777954259
1.242,0.07211891698491002
1.244,0.07180956815928358
1.246,0.07155534925811834
1.248,0.07135651038526361
1.25,0.07121320343559644
1.252,0.0711254818803381
1.254,0.07109330069535975
1.256,0.0711165164325786
1.258,0.07119488743434266
1.26,0.07132807419049916
1.262,0.07151563983763683
1.264,0.07175705079979133
1.266,0.07205167756970099
1.268,0.07239879562949862
1.27,0.07279758650952932
1.272,0.07324713898378446
1.274,0.07374645040024871
1.276,0.07429442814426533
1.278,0.07488989123283495
1.28,0.0755315720375746
1.282,0.07621811813388468
1.284,0.0769480942736878
1.286,0.0777199844789283
1.288,0.07853219425285095
1.29,0.07938305290590769
1.292,0.0802708159929775
1.294,0.08119366785842731
1.296,0.08214972428538904
1.298,0.08313703524547368
1.3,0.08415358774500888
1.302,0.08519730876374128
1.304,0.08626606828181616
1.306,0.08735768239072121
1.308,0.08846991648376201
1.31,0.08960048852151944
1.312,0.09074707236763731
1.314,0.09190730119018675
1.316,0.093078770923755
1.318,0.09425904378732898
1.32,0.09544565185295623
1.322,0.09663610066009568
1.324,0.09782787287050726
1.326,0.09901843195847064
1.328,0.10020522593106684
1.33,0.10138569107322512
1.332,0.10255725571219133
1.334,0.10371734399604765
1.336,0.10486337968090084
1.338,0.10599278992133304
1.34,0.10710300905871037
1.342,0.10819148240194554
1.344,0.10925566999532309
1.346,0.11029305036800655
1.348,0.11130112425988375
1.35,0.11227741831843122
1.352,0.1132194887613186
1.354,0.11412492499953203
1.356,0.11499135321583943
1.358,0.11581643989349039
1.36,0.11659789529011272
1.362,0.11733347685184561
1.364,0.11802099256282896
1.366,0.11865830422526873
1.368,0.11924333066539
1.37,0.1197740508606924
1.372,0.12024850698404421
1.374,0.12066480736025693
1.3760000000000001,0.12102112933091475
1.3780000000000001,0.12131572202335886
1.3800000000000001,0.12154690901986687
1.3820000000000001,0.12171309092320098
1.3840000000000001,0.12181274781485622
1.3860000000000001,0.12184444160248409
1.3880000000000001,0.1218068182531244
1.3900000000000001,0.12169860990904798
1.3920000000000001,0.1215186368831676
1.3940000000000001,0.1212658095311562
1.3960000000000001,0.12093912999757743
1.3980000000000001,0.12053769383352145
1.4000000000000001,0.12006069148340998
1.4020000000000001,0.1195074096388319
1.4040000000000001,0.11887723245745153
1.4060000000000001,0.1181696426452237
1.408,0.11738422240034986
1.41,0.11652065421759594
1.412,0.11557872155180186
1.414,0.11455830933960096
1.416,0.11345940437857974
1.418,0.11228209556330068
1.42,0.11102657397782392
